.13699999451637268
.13600000739097595
.11299999803304672
.09099999815225601
.07800000160932541
.07400000095367432
.10100000351667404
.12099999934434891
.1340000033378601
.14000000059604645
.16699999570846558
.1809999942779541
.20499999821186066
.22300000488758087
.23600000143051147
.24799999594688416
.24500000476837158
.22499999403953552
.2070000022649765
.20100000500679016
.19699999690055847
.22699999809265137
.2669999897480011
.3140000104904175
.3160000145435333
.29100000858306885
.25
.22499999403953552
.23999999463558197
.26100000739097595
.27900001406669617
.2770000100135803
.24500000476837158
.1940000057220459
.15199999511241913
.15600000321865082
.16899999976158142
.1979999989271164
.21199999749660492
.22499999403953552
.23199999332427979
.23499999940395355
.21699999272823334
.1940000057220459
.17800000309944153
.15199999511241913
.13500000536441803
.14399999380111694
.15299999713897705
.17000000178813934
.19300000369548798
.1899999976158142
.1679999977350235
.14800000190734863
.11900000274181366
.11100000143051147
.14000000059604645
.15600000321865082
.16699999570846558
.15600000321865082
.10999999940395355
.07900000363588333
.08699999749660492
.10599999874830246
.1720000058412552
.20000000298023224
.18000000715255737
.16200000047683716
.1420000046491623
.14300000667572021
.1809999942779541
.22699999809265137
.21400000154972076
.20999999344348907
.1860000044107437
.15700000524520874
.15800000727176666
.16699999570846558
.1379999965429306
.12999999523162842
.14100000262260437
.14100000262260437
.16300000250339508
.2070000022649765
.21799999475479126
.20800000429153442
.19699999690055847
.16899999976158142
.164000004529953
.16599999368190765
.1589999943971634
.15600000321865082
.1889999955892563
.21699999272823334
.23899999260902405
.2460000067949295
.24300000071525574
.22300000488758087
.18799999356269836
.164000004529953
.1850000023841858
.24199999868869781
.2930000126361847
.33500000834465027
.34200000762939453
.32499998807907104
.2939999997615814
.2669999897480011
.2590000033378601
.2770000100135803
.2879999876022339
.2639999985694885
.25200000405311584
.22300000488758087
.1889999955892563
.17399999499320984
.14399999380111694
.11900000274181366
.10599999874830246
.10899999737739563
.12600000202655792
.1340000033378601
.13600000739097595
.12600000202655792
.0989999994635582
.06300000101327896
.041999999433755875
.03400000184774399
.061000000685453415
.0989999994635582
.11999999731779099
.13500000536441803
.11500000208616257
.0689999982714653
0.
-.017999999225139618
.04899999871850014
.17900000512599945
.37599998712539673
.6169999837875366
.8730000257492065
1.062999963760376
1.156000018119812
1.090000033378601
.890999972820282
.6299999952316284
.34299999475479126
.10599999874830246
-.019999999552965164
-.05900000035762787
-.07199999690055847
-.04100000113248825
-.010999999940395355
.014000000432133675
.054999999701976776
.08500000089406967
.125
.14900000393390656
.12399999797344208
.09700000286102295
.06199999898672104
.03999999910593033
.04899999871850014
.09000000357627869
.13500000536441803
.1809999942779541
.1889999955892563
.16099999845027924
.13699999451637268
.10599999874830246
.0989999994635582
.11299999803304672
.14000000059604645
.16599999368190765
.1899999976158142
.1889999955892563
.17000000178813934
.13099999725818634
.08500000089406967
.05999999865889549
.07699999958276749
.10899999737739563
.1469999998807907
.1720000058412552
.17000000178813934
.14300000667572021
.11900000274181366
.1379999965429306
.1599999964237213
.19599999487400055
.2280000001192093
.23000000417232513
.20399999618530273
.18400000035762787
.16599999368190765
.15399999916553497
.1940000057220459
.2460000067949295
.27799999713897705
.3109999895095825
.31200000643730164
.2709999978542328
.23999999463558197
.22499999403953552
.20600000023841858
.23100000619888306
.2680000066757202
.29499998688697815
.3310000002384186
.3440000116825104
.335999995470047
.3269999921321869
.3199999928474426
.3190000057220459
.31700000166893005
.3140000104904175
.30300000309944153
.28200000524520874
.2529999911785126
.24400000274181366
.24400000274181366
.25099998712539673
.257999986410141
.2540000081062317
.2680000066757202
.26100000739097595
.2540000081062317
.23800000548362732
.22100000083446503
.1899999976158142
.15600000321865082
.13699999451637268
.13500000536441803
.1720000058412552
.20200000703334808
.22300000488758087
.20600000023841858
.17599999904632568
.14300000667572021
.1379999965429306
.15600000321865082
.17499999701976776
.2029999941587448
.20000000298023224
.18000000715255737
.14800000190734863
.14300000667572021
.16300000250339508
.20100000500679016
.23000000417232513
.23800000548362732
.2370000034570694
.2240000069141388
.1940000057220459
.1679999977350235
.16599999368190765
.16599999368190765
.1589999943971634
.16099999845027924
.14300000667572021
.1469999998807907
.15399999916553497
.15299999713897705
.17299999296665192
.19499999284744263
.21799999475479126
.2150000035762787
.2150000035762787
.21199999749660492
.20499999821186066
.17800000309944153
.16899999976158142
.17800000309944153
.18700000643730164
.21699999272823334
.22699999809265137
.2199999988079071
.20800000429153442
.18700000643730164
.16099999845027924
.16899999976158142
.1899999976158142
.20600000023841858
.23000000417232513
.23000000417232513
.23999999463558197
.2409999966621399
.24899999797344208
.23600000143051147
.2409999966621399
.25699999928474426
.2800000011920929
.2919999957084656
.29499998688697815
.3059999942779541
.2770000100135803
.27300000190734863
.2619999945163727
.257999986410141
.24699999392032623,1667232016.4094377
.2160000056028366
.18000000715255737
.15600000321865082
.14800000190734863
.12600000202655792
.12200000137090683
.10000000149011612
.09000000357627869
.07599999755620956
.07000000029802322
.07800000160932541
.09799999743700027
.1120000034570694
.11599999666213989
.12099999934434891
.11299999803304672
.11100000143051147
.0820000022649765
.04899999871850014
.026000000536441803
.02800000086426735
.014999999664723873
.017999999225139618
.06700000166893005
.16699999570846558
.3449999988079071
.5830000042915344
.8600000143051147
1.0859999656677246
1.194000005722046
1.1260000467300415
.8870000243186951
.5809999704360962
.2809999883174896
.04899999871850014
-.06599999964237213
-.08100000023841858
-.06700000166893005
-.03700000047683716
-.020999999716877937
-.014000000432133675
.01600000075995922
.06199999898672104
.08399999886751175
.09099999815225601
.07000000029802322
.03999999910593033
.007000000216066837
.008999999612569809
.03999999910593033
.07999999821186066
.0949999988079071
.09000000357627869
.08299999684095383
.06700000166893005
.08100000023841858
.08699999749660492
.09799999743700027
.09799999743700027
.09300000220537186
.07000000029802322
.0560000017285347
.039000000804662704
.02199999988079071
.03099999949336052
.0560000017285347
.0949999988079071
.13500000536441803
.15700000524520874
.13300000131130219
.1120000034570694
.07800000160932541
.07800000160932541
.10300000011920929
.1379999965429306
.17100000381469727
.19200000166893005
.17900000512599945
.14499999582767487
.14499999582767487
.14000000059604645
.1550000011920929
.17499999701976776
.1860000044107437
.18400000035762787
.17800000309944153
.1720000058412552
.1720000058412552
.19699999690055847
.20900000631809235
.2280000001192093
.2590000033378601
.2619999945163727
.25200000405311584
.24500000476837158
.23999999463558197
.23600000143051147
.24500000476837158
.24899999797344208
.26499998569488525
.2680000066757202
.25699999928474426
.2720000147819519
.2879999876022339
.29100000858306885
.2669999897480011
.23000000417232513
.1850000023841858
.17399999499320984
.16300000250339508
.16099999845027924
.1809999942779541
.19499999284744263
.18799999356269836
.16599999368190765
.13199999928474426
.0949999988079071
.07900000363588333
.06499999761581421
.08900000154972076
.13199999928474426
.1770000010728836
.1850000023841858
.17299999296665192
.14300000667572021
.12200000137090683
.09399999678134918
.08799999952316284
.10100000351667404
.10000000149011612
.10300000011920929
.11699999868869781
.13199999928474426
.15000000596046448
.15199999511241913
.13500000536441803
.11699999868869781
.09300000220537186
.08100000023841858
.08799999952316284
.12300000339746475
.15199999511241913
.15199999511241913
.14100000262260437
.13300000131130219
.11699999868869781
.12300000339746475
.12800000607967377
.12999999523162842
.14399999380111694
.13899999856948853
.125
.12300000339746475
.11900000274181366
.12700000405311584
.13199999928474426
.12700000405311584
.12399999797344208
.11500000208616257
.1120000034570694
.10700000077486038
.0949999988079071
.10499999672174454
.10499999672174454
.10400000214576721
.1120000034570694
.12800000607967377
.1420000046491623
.17299999296665192
.17499999701976776
.17599999904632568
.17399999499320984
.15600000321865082
.15800000727176666
.1679999977350235
.17499999701976776
.1809999942779541
.19599999487400055
.19599999487400055
.21400000154972076
.23800000548362732
.25099998712539673
.26899999380111694
.25999999046325684
.23199999332427979
.1860000044107437
.13099999725818634
.0820000022649765
.050999999046325684
.03400000184774399
.028999999165534973
.03200000151991844
.035999998450279236
.03400000184774399
.028999999165534973
.02500000037252903
.03700000047683716
.0560000017285347
.06599999964237213
.06700000166893005
.050999999046325684
.029999999329447746
.004999999888241291
-.0020000000949949026
-.009999999776482582
-.014999999664723873
-.024000000208616257
-.05999999865889549
-.07599999755620956
-.020999999716877937
.10700000077486038
.2980000078678131
.5619999766349792
.8650000095367432
1.0920000076293945
1.1929999589920044
1.128000020980835
.9100000262260437
.6010000109672546
.27300000190734863
.017000000923871994
-.11400000005960464
-.12399999797344208
-.10300000011920929
-.04699999839067459
0.
.009999999776482582
0.
-.004999999888241291
-.0010000000474974513
.010999999940395355
.01899999938905239
.03099999949336052
.035999998450279236
.039000000804662704
.01600000075995922
.0020000000949949026
-.020999999716877937
-.039000000804662704
-.039000000804662704
-.01600000075995922
.02199999988079071
.04500000178813934
.0560000017285347
.04699999839067459
.052000001072883606
.039000000804662704
.04500000178813934
.029999999329447746
.02500000037252903
.029999999329447746
.041999999433755875
.04800000041723251
.06300000101327896
.05400000140070915
.03799999877810478
.01899999938905239
.017999999225139618
.03999999910593033
.06300000101327896
.07800000160932541
.06599999964237213
.0560000017285347
.04800000041723251
.04699999839067459
.041999999433755875
.07500000298023224
.10700000077486038
.13500000536441803
.1550000011920929
.14100000262260437
.12700000405311584
.11299999803304672
.11900000274181366
.15299999713897705
.20100000500679016
.22300000488758087
.23100000619888306
.22200000286102295
.19300000369548798
.17599999904632568
.16300000250339508
.15000000596046448
.1459999978542328
.16500000655651093
.16699999570846558
.1899999976158142
.1979999989271164
.17499999701976776
.16899999976158142
.1720000058412552
.18400000035762787
.20600000023841858
.20900000631809235
.164000004529953
.1289999932050705
.09799999743700027
.06800000369548798
.06800000369548798
.05700000002980232
.05700000002980232
.057999998331069946
.05400000140070915
.07199999690055847
.10499999672174454
.10100000351667404
.08699999749660492
.06599999964237213
.04500000178813934
.050999999046325684
.05000000074505806
.04600000008940697
.04800000041723251
.04399999976158142
.017999999225139618
.017999999225139618
.027000000700354576
.039000000804662704
.04100000113248825
.026000000536441803
.01899999938905239
.02199999988079071
.014999999664723873
.003000000026077032
0.
.013000000268220901
.035999998450279236
.05299999937415123
.05999999865889549
.0689999982714653
.07900000363588333
.06700000166893005
.04800000041723251
.0430000014603138
.039000000804662704
.039000000804662704
.050999999046325684
.07000000029802322
.0820000022649765
.09200000017881393
.06300000101327896
.032999999821186066
.01899999938905239
.014000000432133675
.02500000037252903
.052000001072883606
.07999999821186066
.10599999874830246
.10300000011920929
.09099999815225601
.06300000101327896
.03099999949336052
.03799999877810478
.06300000101327896
.09700000286102295
.14100000262260437
.15399999916553497
.14100000262260437
.1459999978542328
.14000000059604645
.1420000046491623
.14800000190734863
.1509999930858612
.16200000047683716
.1860000044107437
.18799999356269836
.19200000166893005
.1899999976158142
.1850000023841858
.16300000250339508
.13600000739097595
.11999999731779099
.09000000357627869
.06499999761581421
.02199999988079071
.0010000000474974513
.004000000189989805
.02199999988079071
.01600000075995922
.02199999988079071
.014000000432133675
.014000000432133675
.041999999433755875
.05900000035762787
.07400000095367432
.07599999755620956
.04899999871850014
-.004999999888241291
-.02199999988079071
-.03700000047683716
-.004999999888241291
-.00800000037997961
-.05700000002980232
-.09799999743700027
-.09000000357627869
-.014000000432133675
.164000004529953
.4320000112056732
.7250000238418579
1.0140000581741333
1.1640000343322754
1.1759999990463257
1.034999966621399
.7680000066757202
.460999995470047
.17399999499320984
-.029999999329447746
-.13199999928474426
-.15199999511241913
-.13699999451637268
-.08399999886751175
-.0430000014603138
-.007000000216066837
.019999999552965164
.0010000000474974513
-.009999999776482582
-.020999999716877937
-.02800000086426735
-.023000000044703484
-.013000000268220901
-.017000000923871994
-.013000000268220901
-.013000000268220901
-.013000000268220901
.0010000000474974513
.03999999910593033
.06700000166893005
.09700000286102295
.10199999809265137
.07100000232458115
.035999998450279236
.003000000026077032
-.02500000037252903
-.02199999988079071
.017000000923871994
.03999999910593033
.08900000154972076
.10400000214576721
.11299999803304672
.09099999815225601
.05299999937415123
.008999999612569809
.0020000000949949026
.019999999552965164
.05299999937415123
.0949999988079071
.09399999678134918
.10000000149011612
.0949999988079071
.10700000077486038
.10700000077486038
.10199999809265137
.0729999989271164
.052000001072883606
.05400000140070915
.09600000083446503
.16099999845027924
.20399999618530273
.22300000488758087
.20200000703334808
.17299999296665192
.1599999964237213
.18199999630451202
.20600000023841858
.23100000619888306
.22599999606609344
.20800000429153442
.1899999976158142
.17100000381469727
.16200000047683716
.18400000035762787
.21899999678134918
.23199999332427979
.23399999737739563
.21400000154972076
.17800000309944153
.12200000137090683
.09000000357627869
.10300000011920929
.15399999916553497
.20900000631809235
.21799999475479126
.18199999630451202
.12300000339746475
.06199999898672104
.029999999329447746
.03500000014901161
.07100000232458115
.09799999743700027
.10100000351667404
.10100000351667404
.09200000017881393
.0989999994635582
.08699999749660492
.0729999989271164
.057999998331069946
.06499999761581421
.06800000369548798
.07500000298023224
.07599999755620956
.0689999982714653
.06300000101327896
.035999998450279236
.027000000700354576
.029999999329447746
.023000000044703484
.03099999949336052
.052000001072883606
.04800000041723251
.06700000166893005
.06700000166893005
.061000000685453415
.06599999964237213
.050999999046325684
.03500000014901161
.05700000002980232
.07400000095367432
.09300000220537186
.11800000071525574
.1080000028014183
.10899999737739563
.09300000220537186
.06300000101327896
.052000001072883606
.04899999871850014
.03799999877810478
.04500000178813934
.041999999433755875
.052000001072883606
.06199999898672104
.061000000685453415
.0689999982714653
.0860000029206276
.0989999994635582
.10999999940395355
.10999999940395355
.09300000220537186
.08100000023841858
.07100000232458115
.08399999886751175
.10700000077486038
.13500000536441803
.16200000047683716
.1979999989271164
.22499999403953552
.21699999272823334
.18700000643730164
.16599999368190765
.1459999978542328
.14300000667572021
.13099999725818634
.10400000214576721
.07900000363588333
.06400000303983688
.04899999871850014
.054999999701976776
.0729999989271164
.04899999871850014
.032999999821186066
.003000000026077032
-.02199999988079071
.0020000000949949026
.019999999552965164
.020999999716877937
.003000000026077032
-.012000000104308128
-.032999999821186066
-.03700000047683716
-.027000000700354576
-.014000000432133675
.019999999552965164
.03500000014901161
.04899999871850014
.017000000923871994
-.032999999821186066
-.08500000089406967
-.0989999994635582
-.019999999552965164
.1589999943971634
.4230000078678131
.7200000286102295
.9810000061988831
1.1089999675750732
1.097000002861023
.9359999895095825
.6650000214576721
.3700000047683716
.0949999988079071
-.1120000034570694
-.20000000298023224
-.19900000095367432
-.16099999845027924
-.09399999678134918
-.035999998450279236
-.009999999776482582
-.004999999888241291
.0020000000949949026
.014999999664723873
.024000000208616257
.013000000268220901,1667232017.3937886
-.009999999776482582
-.017999999225139618
.003000000026077032
.03400000184774399
.05000000074505806
.05000000074505806
.0010000000474974513
-.06599999964237213
-.0989999994635582
-.061000000685453415
-.004999999888241291
.041999999433755875
.04399999976158142
.02199999988079071
.00800000037997961
.008999999612569809
.050999999046325684
.10000000149011612
.12999999523162842
.11299999803304672
.06599999964237213
.017000000923871994
.004000000189989805
.009999999776482582
.03799999877810478
.0860000029206276
.11999999731779099
.1340000033378601
.11500000208616257
.07100000232458115
.03099999949336052
-.0020000000949949026
0.
.02500000037252903
.06400000303983688
.09600000083446503
.10400000214576721
.11400000005960464
.12200000137090683
.12600000202655792
.13199999928474426
.15800000727176666
.14800000190734863
.14900000393390656
.1679999977350235
.1860000044107437
.2280000001192093
.23800000548362732
.2290000021457672
.19699999690055847
.16500000655651093
.1289999932050705
.13199999928474426
.1550000011920929
.1770000010728836
.19900000095367432
.20499999821186066
.20499999821186066
.1850000023841858
.16500000655651093
.1509999930858612
.14100000262260437
.14000000059604645
.13899999856948853
.15800000727176666
.16500000655651093
.14399999380111694
.11299999803304672
.07100000232458115
.041999999433755875
.029999999329447746
.04699999839067459
.054999999701976776
.10400000214576721
.11500000208616257
.11100000143051147
.08500000089406967
.057999998331069946
.041999999433755875
.024000000208616257
.05000000074505806
.08900000154972076
.1340000033378601
.13300000131130219
.12200000137090683
.08299999684095383
.04699999839067459
.035999998450279236
.06700000166893005
.07900000363588333
.07599999755620956
.07100000232458115
.05700000002980232
.06300000101327896
.10999999940395355
.12800000607967377
.12399999797344208
.12099999934434891
.05999999865889549
.035999998450279236
.07000000029802322
.10000000149011612
.11599999666213989
.12800000607967377
.09399999678134918
.05700000002980232
.05000000074505806
.057999998331069946
.10499999672174454
.1420000046491623
.12999999523162842
.10400000214576721
.050999999046325684
.029999999329447746
.03700000047683716
.07900000363588333
.11999999731779099
.14900000393390656
.1459999978542328
.13500000536441803
.13300000131130219
.14000000059604645
.1679999977350235
.1720000058412552
.1899999976158142
.1979999989271164
.210999995470047
.22599999606609344
.2370000034570694
.22300000488758087
.20399999618530273
.18700000643730164
.1860000044107437
.20200000703334808
.2029999941587448
.1720000058412552
.12399999797344208
.07100000232458115
.03999999910593033
.032999999821186066
.05299999937415123
.0820000022649765
.10499999672174454
.0820000022649765
.03400000184774399
-.010999999940395355
-.04600000008940697
-.041999999433755875
-.023000000044703484
.01899999938905239
.03200000151991844
.020999999716877937
-.0020000000949949026
-.004999999888241291
.007000000216066837
.01899999938905239
.029999999329447746
0.
-.04800000041723251
-.057999998331069946
.017999999225139618
.19599999487400055
.4620000123977661
.7670000195503235
1.0369999408721924
1.2009999752044678
1.2079999446868896
1.024999976158142
.7429999709129333
.414000004529953
.11299999803304672
-.09000000357627869
-.164000004529953
-.1599999964237213
-.12800000607967377
-.0729999989271164
-.027000000700354576
.0020000000949949026
.023000000044703484
.027000000700354576
.027000000700354576
.03500000014901161
.04800000041723251
.061000000685453415
.0820000022649765
.08399999886751175
.06400000303983688
.05700000002980232
.04699999839067459
.0430000014603138
.05299999937415123
.05299999937415123
.039000000804662704
.039000000804662704
.03099999949336052
.03200000151991844
.03400000184774399
.03799999877810478
.023000000044703484
.014999999664723873
.023000000044703484
.023000000044703484
.03400000184774399
.03999999910593033
.039000000804662704
.019999999552965164
.02500000037252903
.02199999988079071
.0430000014603138
.07699999958276749
.05000000074505806
.032999999821186066
.04100000113248825
.04800000041723251
.08699999749660492
.14399999380111694
.18400000035762787
.20999999344348907
.20399999618530273
.164000004529953
.15600000321865082
.16200000047683716
.16300000250339508
.17100000381469727
.1720000058412552
.17599999904632568
.164000004529953
.15800000727176666
.16099999845027924
.16899999976158142
.16200000047683716
.15000000596046448
.12099999934434891
.0989999994635582
.13099999725818634
.20499999821186066
.2669999897480011
.2750000059604645
.26600000262260437
.20800000429153442
.15199999511241913
.13500000536441803
.13899999856948853
.18400000035762787
.21400000154972076
.2029999941587448
.17499999701976776
.15800000727176666
.13199999928474426
.09300000220537186
.07500000298023224
.07599999755620956
.08699999749660492
.08699999749660492
.0820000022649765
.0560000017285347
.04800000041723251
.041999999433755875
.03999999910593033
.04399999976158142
.03400000184774399
.017000000923871994
.014999999664723873
.01600000075995922
.03200000151991844
.07699999958276749
.10899999737739563
.11800000071525574
.08900000154972076
.028999999165534973
-.017000000923871994
-.05299999937415123
-.06700000166893005
-.03700000047683716
.017999999225139618
.06300000101327896
.10400000214576721
.11699999868869781
.0949999988079071
.08399999886751175
.06499999761581421
.03999999910593033
.04399999976158142
.04399999976158142
.04699999839067459
.05400000140070915
.039000000804662704
.017999999225139618
.026000000536441803
.03799999877810478
.06300000101327896
.09799999743700027
.11599999666213989
.12600000202655792
.11900000274181366
.08299999684095383
.039000000804662704
.017999999225139618
.017999999225139618
.0430000014603138,1667232018.4097698
.09000000357627869
.14100000262260437
.16099999845027924
.16500000655651093
.15800000727176666
.14100000262260437
.13600000739097595
.13600000739097595
.13500000536441803
.12700000405311584
.14499999582767487
.1720000058412552
.20499999821186066
.22300000488758087
.21799999475479126
.1850000023841858
.14399999380111694
.11800000071525574
.09099999815225601
.08100000023841858
.09099999815225601
.08799999952316284
.06300000101327896
.054999999701976776
.027000000700354576
.010999999940395355
.008999999612569809
.012000000104308128
.017000000923871994
.010999999940395355
0.
.004000000189989805
.004000000189989805
.0020000000949949026
.013000000268220901
.010999999940395355
.008999999612569809
-.014000000432133675
-.04500000178813934
-.0820000022649765
-.10899999737739563
-.08799999952316284
.020999999716877937
.22699999809265137
.4959999918937683
.8059999942779541
1.0700000524520874
1.2209999561309814
1.2029999494552612
1.0140000581741333
.7200000286102295
.39100000262260437
.10700000077486038
-.0820000022649765
-.1550000011920929
-.17399999499320984
-.15199999511241913
-.09799999743700027
-.05900000035762787
-.01899999938905239
-.0010000000474974513
-.004999999888241291
-.012000000104308128
-.008999999612569809
-.003000000026077032
.01899999938905239
.01899999938905239
.0020000000949949026
-.014000000432133675
-.04600000008940697
-.057999998331069946
-.050999999046325684
-.03799999877810478
-.012000000104308128
.03999999910593033
.05700000002980232
.07999999821186066
.07699999958276749
.0430000014603138
.019999999552965164
0.
-.026000000536441803
-.03099999949336052
-.006000000052154064
.019999999552965164
.04600000008940697
.0560000017285347
.04899999871850014
.017000000923871994
0.
-.0020000000949949026
.023000000044703484
.04699999839067459
.06300000101327896
.05299999937415123
.05999999865889549
.05299999937415123
.054999999701976776
.057999998331069946
.04699999839067459
.0430000014603138
.04600000008940697
.06700000166893005
.10199999809265137
.1289999932050705
.13099999725818634
.17000000178813934
.1850000023841858
.19499999284744263
.18299999833106995
.15199999511241913
.12600000202655792
.12399999797344208
.13099999725818634
.15800000727176666
.18799999356269836
.18000000715255737
.1599999964237213
.16300000250339508
.15399999916553497
.14499999582767487
.13899999856948853
.12300000339746475
.12099999934434891
.13899999856948853
.16200000047683716
.15600000321865082
.15800000727176666
.12700000405311584
.09799999743700027
.11100000143051147
.12200000137090683
.125
.10300000011920929
.06700000166893005
.02199999988079071
.0010000000474974513
-.003000000026077032
-.0020000000949949026
.019999999552965164
.028999999165534973
.014000000432133675
-.00800000037997961
-.014999999664723873
.0020000000949949026
.03700000047683716
.08299999684095383
.10599999874830246
.09799999743700027
.06800000369548798
.02199999988079071
.004999999888241291
.014000000432133675
.05000000074505806
.07699999958276749
.0949999988079071
.08500000089406967
.07699999958276749
.06599999964237213
.05900000035762787
.04500000178813934
.041999999433755875
.04500000178813934
.04699999839067459
.04399999976158142
.026000000536441803
.012000000104308128
0.
.003000000026077032
.014000000432133675
.052000001072883606
.0949999988079071
.11900000274181366
.11299999803304672
.11100000143051147
.10000000149011612
.07400000095367432
.06599999964237213
.05299999937415123
.03999999910593033
.06199999898672104
.0860000029206276
.09099999815225601
.1289999932050705
.1459999978542328
.1459999978542328
.15199999511241913
.17399999499320984
.1850000023841858
.2070000022649765
.2070000022649765
.17499999701976776
.15299999713897705
.1589999943971634
.16500000655651093
.19300000369548798
.24300000071525574
.24799999594688416
.22699999809265137
.18199999630451202
.125
.0860000029206276
.06300000101327896
.03400000184774399
.017999999225139618
-.006000000052154064
-.007000000216066837
.02199999988079071
.0729999989271164
.10400000214576721
.10400000214576721
.06400000303983688
-.010999999940395355
-.05999999865889549
-.07999999821186066
-.017000000923871994
.07000000029802322
.12700000405311584
.12300000339746475
.07000000029802322
.0010000000474974513
-.06300000101327896
-.0860000029206276
-.04100000113248825
.09600000083446503
.2849999964237213
.5320000052452087
.8029999732971191
1.0460000038146973
1.1759999990463257
1.159000039100647
.9779999852180481
.6740000247955322
.3540000021457672
.07400000095367432
-.1120000034570694
-.1770000010728836
-.15199999511241913
-.10499999672174454
-.027000000700354576
.027000000700354576
.04500000178813934
.0729999989271164
.07400000095367432
.06499999761581421
.07000000029802322
.061000000685453415
.04399999976158142
.020999999716877937
.009999999776482582
.003000000026077032
.02800000086426735
.04800000041723251
.07199999690055847
.07900000363588333
.061000000685453415
.03799999877810478
.029999999329447746
.03799999877810478
.039000000804662704
.05700000002980232
.07199999690055847
.07699999958276749
.09000000357627869
.10700000077486038
.11500000208616257
.10499999672174454
.09200000017881393
.07900000363588333
.07699999958276749
.08500000089406967
.08100000023841858
.07100000232458115
.05900000035762787
.06700000166893005
.06599999964237213
.08900000154972076
.10999999940395355
.12300000339746475
.13099999725818634
.1509999930858612
.17900000512599945
.19099999964237213
.18400000035762787
.15800000727176666
.12600000202655792
.1379999965429306
.17299999296665192
.19699999690055847
.22599999606609344
.23100000619888306
.21199999749660492
.1889999955892563
.17800000309944153
.17499999701976776
.20900000631809235
.2240000069141388
.23999999463558197
.25200000405311584
.24699999392032623,1667232020.3943794
.23000000417232513
.20499999821186066
.1940000057220459
.20100000500679016
.22200000286102295
.2240000069141388
.21699999272823334
.20600000023841858
.18199999630451202
.16200000047683716
.15199999511241913
.14900000393390656
.1340000033378601
.13099999725818634
.12700000405311584
.10599999874830246
.11999999731779099
.10499999672174454
.11599999666213989
.12999999523162842
.14300000667572021
.15600000321865082
.17599999904632568
.14800000190734863
.11400000005960464
.09000000357627869
.04800000041723251
.057999998331069946
.06700000166893005
.09300000220537186
.11100000143051147
.1120000034570694
.09600000083446503
.09300000220537186
.07000000029802322
.04800000041723251
.03999999910593033
.050999999046325684
.06700000166893005
.08500000089406967
.1120000034570694
.12300000339746475
.125
.12300000339746475
.11299999803304672
.11900000274181366
.1379999965429306
.12999999523162842
.11699999868869781
.10599999874830246
.08100000023841858
.05999999865889549
.04899999871850014
.061000000685453415
.09700000286102295
.13600000739097595
.1509999930858612
.16899999976158142
.1720000058412552
.1589999943971634
.12200000137090683
.0860000029206276
.06800000369548798
.06499999761581421
.09200000017881393
.11500000208616257
.15600000321865082
.2160000056028366
.2370000034570694
.22599999606609344
.21199999749660492
.1889999955892563
.1860000044107437
.20000000298023224
.210999995470047
.23199999332427979
.24699999392032623
.20800000429153442
.15000000596046448
.10100000351667404
.0689999982714653
.052000001072883606
.029999999329447746
.012000000104308128
.010999999940395355
.006000000052154064
-.007000000216066837
-.007000000216066837
-.009999999776482582
-.010999999940395355
-.008999999612569809
-.009999999776482582
.008999999612569809
.029999999329447746
.06199999898672104
.06700000166893005
.07000000029802322
.03799999877810478
.0020000000949949026
-.03999999910593033
-.08900000154972076
-.09399999678134918
-.06400000303983688
.041999999433755875
.21299999952316284
.4880000054836273
.796999990940094
1.059000015258789
1.1790000200271606
1.1080000400543213
.8650000095367432
.5450000166893005
.2329999953508377
-.006000000052154064
-.12200000137090683
-.14100000262260437
-.13199999928474426
-.0860000029206276
-.04800000041723251
-.032999999821186066
-.014000000432133675
-.004999999888241291
-.007000000216066837
-.003000000026077032
-.004000000189989805
-.012000000104308128
-.014999999664723873
-.02500000037252903
-.014000000432133675
0.
.024000000208616257
.02800000086426735
.017999999225139618
.008999999612569809
.004999999888241291
.008999999612569809
.028999999165534973
.050999999046325684
.06300000101327896
.08100000023841858
.0860000029206276
.09700000286102295
.07500000298023224
.05000000074505806
.014000000432133675
-.010999999940395355
-.00800000037997961
.014000000432133675
.035999998450279236
.05400000140070915
.06400000303983688
.0430000014603138
.04899999871850014
.05000000074505806
.07599999755620956
.08699999749660492
.07000000029802322
.0560000017285347
.050999999046325684
.06400000303983688
.10599999874830246
.1420000046491623
.16300000250339508
.17499999701976776
.15000000596046448
.12099999934434891
.11699999868869781
.12700000405311584
.14900000393390656
.18000000715255737
.1940000057220459
.20800000429153442
.20900000631809235
.2160000056028366
.21199999749660492
.1979999989271164
.19499999284744263
.20100000500679016
.22200000286102295
.22300000488758087
.20600000023841858
.1860000044107437
.18400000035762787
.17000000178813934
.16500000655651093
.164000004529953
.15299999713897705
.1340000033378601
.10000000149011612
.07999999821186066
.09399999678134918
.11800000071525574
.10899999737739563
.10000000149011612
.09600000083446503
.0989999994635582
.11400000005960464
.10100000351667404
.07199999690055847
.05000000074505806
.026000000536441803
.004000000189989805
.02800000086426735
.04600000008940697
.05900000035762787
.05000000074505806
.003000000026077032
0.
.029999999329447746
.06499999761581421
.10300000011920929
.13199999928474426
.13099999725818634
.11699999868869781
.0729999989271164
.03400000184774399
.03200000151991844
.039000000804662704
.04899999871850014
.07599999755620956
.10999999940395355
.11400000005960464
.10400000214576721
.06800000369548798
.041999999433755875
.02800000086426735
.0430000014603138
.06700000166893005
.12099999934434891
.18299999833106995
.19699999690055847
.1850000023841858
.13600000739097595
.08500000089406967
.027000000700354576
.0020000000949949026
-.008999999612569809
-.0010000000474974513
.039000000804662704
.0729999989271164
.11900000274181366
.1420000046491623
.1459999978542328
.14300000667572021
.14000000059604645
.15000000596046448
.1770000010728836
.22100000083446503
.2409999966621399
.25600001215934753
.26499998569488525
.26100000739097595
.2669999897480011
.26100000739097595
.257999986410141
.24500000476837158
.23199999332427979
.22100000083446503
.19499999284744263
.164000004529953
.12800000607967377
.11400000005960464
.10400000214576721
.11400000005960464
.11100000143051147
.10899999737739563
.11100000143051147
.10999999940395355
.09600000083446503
.08799999952316284
.08299999684095383
.05299999937415123
.027000000700354576
.023000000044703484
.012000000104308128
.01600000075995922
.04600000008940697
.04800000041723251
.024000000208616257
.012000000104308128
-.03200000151991844
-.0729999989271164
-.07900000363588333
-.05400000140070915
.05299999937415123
.25200000405311584
.5
.7689999938011169
1.0499999523162842
1.1979999542236328
1.1950000524520874
1.0410000085830688
.7749999761581421
.4699999988079071
.1979999989271164
-.008999999612569809
-.13199999928474426
-.13699999451637268
-.11400000005960464
-.03999999910593033,1667232021.3960183
.03799999877810478
.08399999886751175
.10000000149011612
.10000000149011612
.0689999982714653
.03500000014901161
.027000000700354576
.020999999716877937
.028999999165534973
.04500000178813934
.06499999761581421
.06800000369548798
.06800000369548798
.029999999329447746
.007000000216066837
.007000000216066837
.020999999716877937
.052000001072883606
.08399999886751175
.10100000351667404
.09300000220537186
.07699999958276749
.050999999046325684
.052000001072883606
.05900000035762787
.07000000029802322
.09000000357627869
.09399999678134918
.0989999994635582
.09799999743700027
.0949999988079071
.09700000286102295
.09700000286102295
.08699999749660492
.07599999755620956
.07599999755620956
.05999999865889549
.03500000014901161
-.004000000189989805
-.04699999839067459
-.05400000140070915
-.003000000026077032
.05900000035762787
.14300000667572021
.2240000069141388
.23800000548362732
.23899999260902405
.2240000069141388
.21899999678134918
.2150000035762787
.210999995470047
.19699999690055847
.20600000023841858
.2240000069141388
.23100000619888306
.24799999594688416
.24300000071525574
.23999999463558197
.23000000417232513
.22699999809265137
.24300000071525574
.257999986410141
.24300000071525574
.21400000154972076
.19099999964237213
.1599999964237213
.15800000727176666
.1509999930858612
.15199999511241913
.16599999368190765
.15299999713897705
.13500000536441803
.11599999666213989
.1120000034570694
.11599999666213989
.12700000405311584
.11400000005960464
.1080000028014183
.08100000023841858
.04899999871850014
.029999999329447746
.0010000000474974513
.013000000268220901
.041999999433755875
.06400000303983688
.09300000220537186
.1120000034570694
.09000000357627869
.0860000029206276
.05999999865889549
.04399999976158142
.04899999871850014
.0560000017285347
.06400000303983688
.08100000023841858
.07599999755620956
.07100000232458115
.09300000220537186
.09000000357627869
.09300000220537186
.10899999737739563
.12399999797344208
.11699999868869781
.09399999678134918
.05999999865889549
.05400000140070915
.0689999982714653
.07699999958276749
.09399999678134918
.09799999743700027
.07999999821186066
.05700000002980232
.05299999937415123
.0560000017285347
.06199999898672104
.041999999433755875
.020999999716877937
.024000000208616257
.0430000014603138
.0820000022649765
.1459999978542328
.18700000643730164
.1979999989271164
.18299999833106995
.1459999978542328
.11100000143051147
.0860000029206276
.0860000029206276
.10100000351667404
.13199999928474426
.1550000011920929
.17100000381469727
.1720000058412552
.1679999977350235
.15600000321865082
.1550000011920929
.17399999499320984
.20399999618530273
.22599999606609344
.23800000548362732
.2240000069141388
.17499999701976776
.12399999797344208
.05700000002980232
.017999999225139618
0.
.0010000000474974513
-.008999999612569809
.008999999612569809
.03999999910593033
.05900000035762787
.06599999964237213
.04600000008940697
.007000000216066837
-.014000000432133675
-.03099999949336052
-.03999999910593033
-.029999999329447746
-.026000000536441803
-.026000000536441803
-.03099999949336052
-.02199999988079071
-.028999999165534973
-.04699999839067459
-.07100000232458115
-.04100000113248825
.06199999898672104
.23600000143051147
.5009999871253967
.7979999780654907
1.062999963760376
1.1829999685287476
1.1610000133514404
.9580000042915344
.6589999794960022
.3230000138282776
.03400000184774399
-.12399999797344208
-.15399999916553497
-.1120000034570694
-.07800000160932541
-.024000000208616257
-.02500000037252903
-.029999999329447746
-.04699999839067459
-.050999999046325684
-.03099999949336052
-.013000000268220901
-.0020000000949949026
-.00800000037997961
.0020000000949949026
-.009999999776482582
0.
-.004999999888241291
-.007000000216066837
.0020000000949949026
.012000000104308128
.014000000432133675
.01899999938905239
.014000000432133675
.0020000000949949026
-.014000000432133675
-.017999999225139618
-.008999999612569809
.014999999664723873
.028999999165534973
.01600000075995922
.004999999888241291
-.0010000000474974513
.00800000037997961
.0430000014603138
.0729999989271164
.05999999865889549
.03400000184774399
-.01600000075995922
-.026000000536441803
-.00800000037997961
.032999999821186066
.07500000298023224
.10300000011920929
.10899999737739563
.10599999874830246
.10700000077486038
.09600000083446503
.09600000083446503
.08299999684095383
.08799999952316284
.09600000083446503
.11599999666213989
.13099999725818634
.13899999856948853
.16099999845027924
.16599999368190765
.18799999356269836
.20900000631809235
.2150000035762787
.21699999272823334
.2150000035762787
.20600000023841858
.19200000166893005
.17599999904632568
.164000004529953
.17399999499320984
.17800000309944153
.18799999356269836
.20100000500679016
.1940000057220459
.18799999356269836
.18199999630451202
.18400000035762787
.1809999942779541
.16699999570846558
.12800000607967377
.0860000029206276
.07599999755620956
.08100000023841858
.08699999749660492
.09799999743700027
.08699999749660492
.05999999865889549
.03999999910593033
.03500000014901161
.04699999839067459
.07199999690055847
.08299999684095383
.06700000166893005
.05299999937415123
.04899999871850014
.06400000303983688
.07100000232458115
.07500000298023224
.054999999701976776
.04600000008940697
.032999999821186066
.023000000044703484
.026000000536441803
.03400000184774399
.04899999871850014
.06300000101327896
.05900000035762787
.04699999839067459
.035999998450279236
.019999999552965164
.02800000086426735
.04800000041723251
.08699999749660492
.1289999932050705
.1420000046491623
.12099999934434891
.08500000089406967
.02800000086426735
.008999999612569809
.017000000923871994
.027000000700354576
.07199999690055847
.10100000351667404
.0949999988079071
.0689999982714653
.07100000232458115
.06400000303983688
.06599999964237213
.06800000369548798
.03500000014901161
.02500000037252903
.03099999949336052
.07000000029802322
.10899999737739563
.15800000727176666
.16599999368190765
.12999999523162842
.11299999803304672
.10899999737739563
.1289999932050705
.17399999499320984
.21299999952316284
.23100000619888306
.24400000274181366
.24500000476837158
.2150000035762787
.17399999499320984
.1509999930858612
.14000000059604645
.1550000011920929
.1720000058412552
.16899999976158142
.125
.08500000089406967
.03999999910593033
.020999999716877937
.0430000014603138
.057999998331069946
.06499999761581421
.057999998331069946
.04699999839067459
.012000000104308128
-.003000000026077032
-.006000000052154064
-.020999999716877937
-.027000000700354576
0.
.027000000700354576
.050999999046325684
.07500000298023224
.041999999433755875
-.00800000037997961
-.06400000303983688
-.13899999856948853
-.15399999916553497
-.07699999958276749
.0860000029206276
.32899999618530273
.6150000095367432
.8949999809265137
1.093000054359436
1.184000015258789
1.1089999675750732
.890999972820282
.5839999914169312
.27000001072883606
.026000000536441803
-.10700000077486038
-.12800000607967377
-.09700000286102295
-.04399999976158142
-.014000000432133675
.007000000216066837
.01899999938905239
.01600000075995922
.020999999716877937
.01899999938905239
.026000000536441803
.01899999938905239
-.00800000037997961
-.02800000086426735
-.03700000047683716
-.029999999329447746
-.024000000208616257
-.0010000000474974513
.02500000037252903
.03700000047683716
.03700000047683716
.0430000014603138
.057999998331069946
.07699999958276749
.08500000089406967
.05400000140070915
.029999999329447746
.010999999940395355
.007000000216066837
.00800000037997961
.012000000104308128
.020999999716877937
.050999999046325684
.08900000154972076
.1120000034570694
.13099999725818634
.10999999940395355
.09399999678134918
.06300000101327896
.04899999871850014
.054999999701976776
.06800000369548798
.07699999958276749
.0860000029206276
.10000000149011612
.12700000405311584
.1469999998807907
.11800000071525574
.08299999684095383
.04899999871850014
.05299999937415123
.09200000017881393
.11999999731779099
.13600000739097595
.14300000667572021
.13300000131130219
.12300000339746475
.15299999713897705
.19300000369548798
.21799999475479126
.21199999749660492
.20000000298023224
.17499999701976776
.17100000381469727
.18700000643730164
.1889999955892563
.20800000429153442
.20900000631809235
.1770000010728836
.14000000059604645
.1080000028014183
.0949999988079071
.1080000028014183
.12399999797344208
.15000000596046448
.16099999845027924
.14800000190734863
.13899999856948853
.11400000005960464
.09200000017881393
.10300000011920929
.08100000023841858
.054999999701976776
.04699999839067459
.02800000086426735
.019999999552965164
.017000000923871994
0.
.004999999888241291
.026000000536441803
.05400000140070915
.07599999755620956
.08500000089406967
.07599999755620956
.04699999839067459
.0020000000949949026
-.0020000000949949026
.028999999165534973
.06199999898672104
.11299999803304672
.125
.09700000286102295
.05999999865889549
.03099999949336052
.020999999716877937
.05900000035762787
.09700000286102295
.10999999940395355
.11900000274181366
.09300000220537186
.05999999865889549
.05000000074505806
.061000000685453415
.0729999989271164
.0860000029206276
.07599999755620956
.07999999821186066
.09000000357627869
.0860000029206276
.07900000363588333
.06400000303983688
.03400000184774399
.017000000923871994
.02800000086426735
.05299999937415123
.10100000351667404
.12999999523162842
.13300000131130219
.13300000131130219
.12700000405311584
.1120000034570694
.12600000202655792
.15800000727176666
.18400000035762787
.2150000035762787
.23000000417232513
.20399999618530273
.1889999955892563
.17800000309944153
.17399999499320984
.18799999356269836
.210999995470047
.21400000154972076
.20999999344348907
.18799999356269836
.14900000393390656
.10300000011920929
.05000000074505806
.006000000052154064
-.017000000923871994
-.008999999612569809
.013000000268220901
.02800000086426735
.03400000184774399
.024000000208616257
.008999999612569809
.010999999940395355
.02500000037252903
.03700000047683716
.050999999046325684
.050999999046325684
.03700000047683716
.03099999949336052
.032999999821186066
.026000000536441803
.02199999988079071
.0020000000949949026
-.04899999871850014
-.04800000041723251
0.
.11400000005960464
.3199999928474426
.5849999785423279
.8149999976158142
1.0010000467300415
1.0670000314712524
.9589999914169312
.7480000257492065
.4569999873638153
.17499999701976776
-.02800000086426735
-.12099999934434891
-.1379999965429306
-.09799999743700027
-.04500000178813934
-.02500000037252903
-.012000000104308128
-.012000000104308128
-.010999999940395355
-.014000000432133675
-.01600000075995922
-.017999999225139618
0.
.024000000208616257
.04600000008940697
.06700000166893005
.061000000685453415
.035999998450279236
.007000000216066837
-.017999999225139618
-.03099999949336052
-.014000000432133675
.0010000000474974513
.008999999612569809
.02199999988079071
.02800000086426735
.032999999821186066
.03400000184774399
.028999999165534973
.008999999612569809
.010999999940395355
.008999999612569809
.02800000086426735
.05999999865889549
.0860000029206276
.09200000017881393
.08399999886751175
.07199999690055847
.052000001072883606
.04600000008940697
.04399999976158142
.05700000002980232
.07699999958276749
.09099999815225601
.10199999809265137
.10100000351667404
.10300000011920929
.1080000028014183
.10999999940395355
.11100000143051147
.11299999803304672
.10499999672174454
.09399999678134918
.09799999743700027
.09300000220537186
.11699999868869781
.15600000321865082
.18000000715255737
.210999995470047
.23199999332427979,1667232022.4117286
.2070000022649765
.18299999833106995
.1459999978542328
.10999999940395355
.10499999672174454
.10599999874830246
.11599999666213989
.14900000393390656
.17499999701976776
.18400000035762787
.19300000369548798
.1770000010728836
.15800000727176666
.13199999928474426
.10300000011920929
.10300000011920929
.10000000149011612
.09700000286102295
.0949999988079071
.08100000023841858
.06599999964237213
.0560000017285347
.04100000113248825
.029999999329447746
.04600000008940697
.05299999937415123
.07800000160932541
.0729999989271164
.04899999871850014
.0010000000474974513
-.03799999877810478
-.05900000035762787
-.04800000041723251
-.010999999940395355
.03700000047683716
.0820000022649765
.07599999755620956
.05900000035762787
.01600000075995922
-.017000000923871994
-.032999999821186066
-.01899999938905239
-.0010000000474974513
.039000000804662704
.06400000303983688
.06300000101327896
.07199999690055847
.06300000101327896
.05000000074505806
.05000000074505806
.041999999433755875
.026000000536441803
.024000000208616257
.027000000700354576
-.0020000000949949026
.0010000000474974513
.0020000000949949026
.007000000216066837
.04399999976158142
.06700000166893005
.07999999821186066
.08399999886751175
.07999999821186066
.04100000113248825
.03500000014901161
.004999999888241291
-.02500000037252903
-.029999999329447746
-.014999999664723873
.03400000184774399
.09000000357627869
.12999999523162842
.14300000667572021
.12600000202655792
.08500000089406967
.06800000369548798
.06400000303983688
.07999999821186066
.11400000005960464
.13600000739097595
.12600000202655792
.14000000059604645
.1459999978542328
.16599999368190765
.19599999487400055
.20800000429153442
.20000000298023224
.1940000057220459
.16200000047683716
.1080000028014183
.07699999958276749
.03799999877810478
.026000000536441803
.014000000432133675
.00800000037997961
.0020000000949949026
.0010000000474974513
-.009999999776482582
-.004999999888241291
-.00800000037997961
.003000000026077032
.012000000104308128
.012000000104308128
.003000000026077032
.003000000026077032
0.
-.00800000037997961
-.027000000700354576
-.04500000178813934
-.0560000017285347
-.07100000232458115
-.07800000160932541
-.08399999886751175
-.05299999937415123
.03099999949336052
.18400000035762787
.3840000033378601
.6399999856948853
.8840000033378601
1.0399999618530273
1.0709999799728394
.9570000171661377
.7149999737739563
.4090000092983246
.12700000405311584
-.09200000017881393
-.19200000166893005
-.20600000023841858
-.16500000655651093
-.10599999874830246
-.05299999937415123
-.008999999612569809
.013000000268220901
.010999999940395355
-.019999999552965164
-.050999999046325684
-.052000001072883606
-.03200000151991844
-.03099999949336052
-.01899999938905239
-.027000000700354576
-.03400000184774399
-.0560000017285347
-.06199999898672104
-.03500000014901161
.014000000432133675
.03500000014901161
.019999999552965164
-.012000000104308128
-.039000000804662704
-.050999999046325684
-.04699999839067459
0.
.05299999937415123
.07999999821186066
.07500000298023224
.054999999701976776
.020999999716877937
.007000000216066837
-.006000000052154064
-.014000000432133675
-.00800000037997961
-.0010000000474974513
0.
-.0010000000474974513
.009999999776482582
.01600000075995922
.03700000047683716
.07500000298023224
.09200000017881393
.10199999809265137
.08299999684095383
.05999999865889549
.03099999949336052
.028999999165534973
.052000001072883606
.09200000017881393
.14499999582767487
.17100000381469727
.18000000715255737
.16500000655651093
.1459999978542328
.12399999797344208
.12800000607967377
.1340000033378601
.14800000190734863
.164000004529953
.17399999499320984
.18700000643730164
.18299999833106995
.17100000381469727
.164000004529953
.14900000393390656
.15399999916553497
.16699999570846558
.1589999943971634
.16200000047683716
.16099999845027924
.12700000405311584
.1080000028014183
.09300000220537186
.07599999755620956
.07000000029802322
.05900000035762787
.04100000113248825
.02500000037252903
.024000000208616257
.019999999552965164
.027000000700354576
.041999999433755875
.0560000017285347
.05700000002980232
.054999999701976776
.04699999839067459
.035999998450279236
.017999999225139618
-.023000000044703484
-.05400000140070915
-.07400000095367432
-.061000000685453415
-.023000000044703484
.006000000052154064
.03099999949336052
.04600000008940697
.04800000041723251
.041999999433755875
.02800000086426735
.006000000052154064
-.007000000216066837
-.026000000536441803
-.03700000047683716
-.026000000536441803
-.014000000432133675
-.004000000189989805
.007000000216066837
.02199999988079071
.035999998450279236
.0430000014603138
.028999999165534973
.013000000268220901
.02199999988079071
.03099999949336052
.014999999664723873
.03099999949336052
.029999999329447746
.023000000044703484
.026000000536441803
.024000000208616257
.020999999716877937
.01899999938905239
-.0020000000949949026
-.023000000044703484
-.004999999888241291
.004000000189989805
.032999999821186066
.03999999910593033
.0560000017285347
.05400000140070915
.03999999910593033
.02800000086426735
.026000000536441803
.039000000804662704
.0729999989271164
.10700000077486038
.11699999868869781
.1469999998807907
.15299999713897705
.15199999511241913
.16099999845027924
.164000004529953
.16500000655651093
.16500000655651093
.15399999916553497
.14800000190734863
.14800000190734863
.11800000071525574
.08799999952316284
.06199999898672104
.03099999949336052
.010999999940395355
-.004000000189989805
-.017999999225139618
-.014999999664723873
-.02199999988079071
-.050999999046325684
-.05299999937415123
-.07100000232458115
-.06199999898672104
-.04899999871850014
-.039000000804662704
-.028999999165534973
-.019999999552965164
-.012000000104308128
0.
.003000000026077032
-.01600000075995922
-.03099999949336052
-.08399999886751175
-.13199999928474426
-.1289999932050705,1667232023.4117632
-.041999999433755875
.1340000033378601
.37299999594688416
.628000020980835
.8970000147819519
1.0679999589920044
1.0980000495910645
.9750000238418579
.7319999933242798
.42800000309944153
.12399999797344208
-.0989999994635582
-.20399999618530273
-.2070000022649765
-.16699999570846558
-.11599999666213989
-.08299999684095383
-.06199999898672104
-.0560000017285347
-.06199999898672104
-.050999999046325684
-.023000000044703484
-.014000000432133675
-.013000000268220901
-.027000000700354576
-.0560000017285347
-.08500000089406967
-.09300000220537186
-.08799999952316284
-.06300000101327896
-.03799999877810478
-.03999999910593033
-.06800000369548798
-.09600000083446503
-.11800000071525574
-.10599999874830246
-.08299999684095383
-.04500000178813934
-.006000000052154064
-.0020000000949949026
.0020000000949949026
-.003000000026077032
-.02199999988079071
-.03500000014901161
-.028999999165534973
-.035999998450279236
-.028999999165534973
-.012000000104308128
0.
.014000000432133675
.032999999821186066
.02500000037252903
.00800000037997961
-.008999999612569809
-.04899999871850014
-.06199999898672104
-.0560000017285347
-.026000000536441803
-.0010000000474974513
.041999999433755875
.052000001072883606
.07400000095367432
.09600000083446503
.10599999874830246
.125
.12399999797344208
.12600000202655792
.11800000071525574
.1120000034570694
.10100000351667404
.11400000005960464
.125
.125
.12999999523162842
.1509999930858612
.17000000178813934
.16300000250339508
.1589999943971634
.14399999380111694
.11699999868869781
.08799999952316284
.05900000035762787
.05400000140070915
.06800000369548798
.09000000357627869
.09200000017881393
.10700000077486038
.10999999940395355
.08399999886751175
.05400000140070915
.03099999949336052
.007000000216066837
.010999999940395355
.02199999988079071
.03200000151991844
.02800000086426735
.007000000216066837
-.019999999552965164
-.017000000923871994
-.008999999612569809
-.003000000026077032
.006000000052154064
-.010999999940395355
-.052000001072883606
-.09300000220537186
-.10100000351667404
-.08500000089406967
-.03400000184774399
.010999999940395355
.024000000208616257
.03200000151991844
.014999999664723873
-.020999999716877937
-.019999999552965164
-.0020000000949949026
.014000000432133675
.03799999877810478
.050999999046325684
.050999999046325684
.04899999871850014
.026000000536441803
.019999999552965164
.03200000151991844
.017999999225139618
-.004000000189989805
-.00800000037997961
-.014999999664723873
-.004000000189989805
.017000000923871994
.014999999664723873
.02800000086426735
.04800000041723251
.028999999165534973
.028999999165534973
.032999999821186066
.02800000086426735
.01899999938905239
.017999999225139618
.017999999225139618
.041999999433755875
.057999998331069946
.04399999976158142
.02800000086426735
.01899999938905239
.029999999329447746
.04800000041723251
.06499999761581421
.07199999690055847
.06499999761581421
.04800000041723251
.026000000536441803
.039000000804662704
.08500000089406967
.1289999932050705
.1679999977350235
.1770000010728836
.1599999964237213
.13600000739097595
.10899999737739563
.10000000149011612
.11800000071525574
.14300000667572021
.1599999964237213
.15000000596046448
.1289999932050705
.10199999809265137
.08299999684095383
.06199999898672104
.052000001072883606
.035999998450279236
.008999999612569809
-.012000000104308128
-.032999999821186066
-.04899999871850014
-.05000000074505806
-.0430000014603138
-.03799999877810478
-.02500000037252903
-.01899999938905239
-.02199999988079071
-.03400000184774399
-.05299999937415123
-.05999999865889549
-.06199999898672104
-.05299999937415123
-.0430000014603138
-.03200000151991844
-.02800000086426735
-.017999999225139618
.029999999329447746
.1550000011920929
.36800000071525574
.6269999742507935
.9139999747276306
1.1089999675750732
1.156999945640564
1.0420000553131104
.7689999938011169
.4399999976158142
.1379999965429306
-.08299999684095383
-.20900000631809235
-.22599999606609344
-.18400000035762787
-.12399999797344208
-.06199999898672104
-.028999999165534973
-.024000000208616257
-.039000000804662704
-.06499999761581421
-.0860000029206276
-.06700000166893005
-.03400000184774399
-.00800000037997961
-.003000000026077032
.004999999888241291
-.00800000037997961
-.01899999938905239
-.04399999976158142
-.05299999937415123
-.03999999910593033
-.04899999871850014
-.0430000014603138
-.04699999839067459
-.03099999949336052
-.02800000086426735
-.023000000044703484
-.003000000026077032
.013000000268220901
.017999999225139618
-.0020000000949949026
-.023000000044703484
-.041999999433755875
-.039000000804662704
-.020999999716877937
.003000000026077032
.029999999329447746
.009999999776482582
.003000000026077032
-.023000000044703484
-.009999999776482582
.014000000432133675
.029999999329447746
.05000000074505806
.05299999937415123
.029999999329447746
.02500000037252903
.04899999871850014
.05999999865889549
.10000000149011612
.10599999874830246
.09300000220537186
.07900000363588333
.07100000232458115
.0689999982714653
.0860000029206276
.1080000028014183
.1420000046491623
.1720000058412552
.18700000643730164
.18199999630451202
.17399999499320984
.16899999976158142
.1550000011920929
.1379999965429306
.13699999451637268
.14499999582767487
.14800000190734863
.15700000524520874
.16500000655651093
.1679999977350235
.15199999511241913
.11900000274181366
.09700000286102295
.08299999684095383
.07699999958276749
.07999999821186066
.0689999982714653
.050999999046325684
.0560000017285347
.050999999046325684
.03400000184774399
.03400000184774399
.02800000086426735
.02199999988079071
.03799999877810478
.03999999910593033
.04800000041723251
.06199999898672104
.061000000685453415
.05000000074505806
.04899999871850014
.041999999433755875
.024000000208616257
.00800000037997961
-.0010000000474974513
.012000000104308128
.014000000432133675
.017999999225139618
.008999999612569809,1667232024.3962767
-.010999999940395355
-.023000000044703484
-.013000000268220901
-.004999999888241291
.012000000104308128
.024000000208616257
.017999999225139618
.010999999940395355
.028999999165534973
.0430000014603138
.07400000095367432
.10400000214576721
.11900000274181366
.11800000071525574
.08399999886751175
.041999999433755875
.017000000923871994
.009999999776482582
.014000000432133675
.03099999949336052
.03500000014901161
.035999998450279236
.03400000184774399
.02500000037252903
.039000000804662704
.050999999046325684
.04800000041723251
.041999999433755875
.03700000047683716
.035999998450279236
.06800000369548798
.10400000214576721
.11599999666213989
.11900000274181366
.09300000220537186
.057999998331069946
.03799999877810478
.04699999839067459
.07599999755620956
.13199999928474426
.16099999845027924
.17299999296665192
.16500000655651093
.15399999916553497
.1459999978542328
.13500000536441803
.1340000033378601
.14399999380111694
.14300000667572021
.14000000059604645
.13300000131130219
.0949999988079071
.04899999871850014
-.0020000000949949026
-.03700000047683716
-.03200000151991844
-.009999999776482582
.013000000268220901
.03500000014901161
.05000000074505806
.03099999949336052
.01899999938905239
-.0020000000949949026
-.023000000044703484
-.02199999988079071
-.02500000037252903
-.028999999165534973
-.03099999949336052
-.03799999877810478
-.06700000166893005
-.08699999749660492
-.10199999809265137
-.11800000071525574
-.11299999803304672
-.09200000017881393
-.017999999225139618
.11599999666213989
.32199999690055847
.5920000076293945
.8379999995231628
1.0210000276565552
1.0369999408721924
.8870000243186951
.5989999771118164
.289000004529953
.029999999329447746
-.1120000034570694
-.14499999582767487
-.12999999523162842
-.10300000011920929
-.0989999994635582
-.09300000220537186
-.09300000220537186
-.08100000023841858
-.07599999755620956
-.08100000023841858
-.09399999678134918
-.06199999898672104
-.020999999716877937
.004000000189989805
.017000000923871994
-.003000000026077032
-.04699999839067459
-.08900000154972076
-.12399999797344208
-.13500000536441803
-.10899999737739563
-.07100000232458115
-.054999999701976776
-.03200000151991844
-.03099999949336052
-.03500000014901161
-.04500000178813934
-.03500000014901161
-.02500000037252903
-.014999999664723873
-.02800000086426735
-.05700000002980232
-.07199999690055847
-.09099999815225601
-.05900000035762787
-.050999999046325684
-.029999999329447746
-.024000000208616257
-.014999999664723873
-.04500000178813934
-.04800000041723251
-.07000000029802322
-.08299999684095383
-.0430000014603138
-.01899999938905239
.024000000208616257
.057999998331069946
.06400000303983688
.04399999976158142
.05700000002980232
.0560000017285347
.07400000095367432
.0820000022649765
.052000001072883606
.03700000047683716
.039000000804662704
.04699999839067459
.09799999743700027
.1589999943971634
.19499999284744263
.19699999690055847
.17399999499320984
.12300000339746475
.10100000351667404
.09200000017881393
.10599999874830246
.13199999928474426
.1550000011920929
.15199999511241913
.13899999856948853
.11900000274181366
.08299999684095383
.07599999755620956
.07699999958276749
.08799999952316284
.10300000011920929
.11999999731779099
.125
.13300000131130219
.11400000005960464
.08799999952316284
.07400000095367432
.07100000232458115
.04899999871850014
.032999999821186066
.004000000189989805
-.04100000113248825
-.05900000035762787
-.05299999937415123
-.032999999821186066
-.0020000000949949026
.029999999329447746
.03099999949336052
.028999999165534973
.008999999612569809
-.019999999552965164
-.028999999165534973
-.029999999329447746
-.03200000151991844
-.014000000432133675
.023000000044703484
.03500000014901161
.00800000037997961
-.010999999940395355
-.05299999937415123
-.06599999964237213
-.0430000014603138
-.03999999910593033
-.02199999988079071
.006000000052154064
.01899999938905239
.027000000700354576
.06199999898672104
.05000000074505806
.03999999910593033
.04100000113248825
.017000000923871994
.017000000923871994
.03700000047683716
.024000000208616257
.008999999612569809
-.004000000189989805
-.03200000151991844
-.029999999329447746
-.006000000052154064
.024000000208616257
.07100000232458115
.09600000083446503
.05000000074505806
.032999999821186066
.020999999716877937
.0010000000474974513
-.008999999612569809
-.019999999552965164
-.03700000047683716
-.054999999701976776
-.061000000685453415
-.06400000303983688
-.014999999664723873
.013000000268220901
.008999999612569809
.017999999225139618
.03099999949336052
.07199999690055847
.11999999731779099
.1599999964237213
.20000000298023224
.2199999988079071
.22200000286102295
.2150000035762787
.2070000022649765
.1770000010728836
.15800000727176666
.13600000739097595
.07800000160932541
.019999999552965164
-.03099999949336052
-.07699999958276749
-.12399999797344208
-.10599999874830246
-.09099999815225601
-.07599999755620956
-.032999999821186066
-.03200000151991844
.008999999612569809
.04500000178813934
.061000000685453415
.07800000160932541
.08100000023841858
.035999998450279236
-.00800000037997961
-.05900000035762787
-.08500000089406967
-.08799999952316284
-.125
-.13099999725818634
-.12099999934434891
-.12700000405311584
-.10300000011920929
-.04699999839067459
.04399999976158142
.2409999966621399
.4819999933242798
.7609999775886536
1.0520000457763672
1.2200000286102295
1.2059999704360962
1.00600004196167
.6679999828338623
.2720000147819519
-.039000000804662704
-.25099998712539673
-.3240000009536743
-.28299999237060547
-.20499999821186066
-.1379999965429306
-.10999999940395355
-.10599999874830246
-.12999999523162842
-.13899999856948853
-.15399999916553497
-.1509999930858612
-.1340000033378601
-.1120000034570694
-.08900000154972076
-.08299999684095383
-.09000000357627869
-.0949999988079071
-.08900000154972076
-.09399999678134918
-.0949999988079071
-.09099999815225601
-.08799999952316284
-.07999999821186066,1667232026.3971424
-.06800000369548798
-.052000001072883606
-.039000000804662704
-.03500000014901161
-.05299999937415123
-.07100000232458115
-.0729999989271164
-.09200000017881393
-.09399999678134918
-.0689999982714653
-.07199999690055847
-.07699999958276749
-.08699999749660492
-.10999999940395355
-.09600000083446503
-.07199999690055847
-.03999999910593033
.009999999776482582
.032999999821186066
.020999999716877937
.01600000075995922
.02500000037252903
.035999998450279236
.04600000008940697
.028999999165534973
.032999999821186066
.041999999433755875
.06800000369548798
.0820000022649765
.0820000022649765
.07000000029802322
.032999999821186066
.008999999612569809
.03500000014901161
.08399999886751175
.12600000202655792
.16099999845027924
.164000004529953
.14000000059604645
.12300000339746475
.09200000017881393
.08900000154972076
.13500000536441803
.1589999943971634
.1459999978542328
.10999999940395355
.06400000303983688
.007000000216066837
.012000000104308128
.014000000432133675
.01600000075995922
.01600000075995922
-.004999999888241291
-.024000000208616257
-.02199999988079071
.009999999776482582
.019999999552965164
.03999999910593033
.013000000268220901
-.01899999938905239
-.04100000113248825
-.06199999898672104
-.06599999964237213
-.03999999910593033
-.00800000037997961
0.
-.004999999888241291
-.04600000008940697
-.07900000363588333
-.07599999755620956
-.04800000041723251
-.01600000075995922
.004000000189989805
-.008999999612569809
-.0689999982714653
-.10700000077486038
-.13300000131130219
-.13600000739097595
-.09600000083446503
-.07000000029802322
-.05700000002980232
-.061000000685453415
-.050999999046325684
-.04600000008940697
-.007000000216066837
.013000000268220901
.03099999949336052
.04100000113248825
.01899999938905239
-.007000000216066837
-.050999999046325684
-.04699999839067459
-.04899999871850014
-.029999999329447746
-.024000000208616257
-.008999999612569809
.004000000189989805
.008999999612569809
-.008999999612569809
-.04500000178813934
-.07800000160932541
-.12700000405311584
-.125
-.0989999994635582
-.04100000113248825
.026000000536441803
.06300000101327896
.03700000047683716
.013000000268220901
-.024000000208616257
-.04800000041723251
-.03500000014901161
-.008999999612569809
.01600000075995922
.03999999910593033
.07199999690055847
.07000000029802322
.08399999886751175
.0860000029206276
.07400000095367432
.05999999865889549
.057999998331069946
.050999999046325684
.057999998331069946
.09600000083446503
.11900000274181366
.13099999725818634
.11500000208616257
.06199999898672104
.004999999888241291
-.0430000014603138
-.08399999886751175
-.09000000357627869
-.0820000022649765
-.08399999886751175
-.0989999994635582
-.09099999815225601
-.09000000357627869
-.0729999989271164
-.06599999964237213
-.07800000160932541
-.08100000023841858
-.0729999989271164
-.07999999821186066
-.06199999898672104
-.03700000047683716
-.0430000014603138
-.06800000369548798
-.1080000028014183
-.1589999943971634
-.1899999976158142
-.1720000058412552
-.09799999743700027
.05000000074505806
.28999999165534973
.5849999785423279
.8920000195503235
1.121999979019165
1.184000015258789
1.055999994277954
.7789999842643738
.4410000145435333
.09700000286102295
-.11999999731779099
-.23600000143051147
-.25999999046325684
-.2290000021457672
-.18400000035762787
-.17000000178813934
-.1469999998807907
-.13699999451637268
-.13699999451637268
-.11299999803304672
-.08399999886751175
-.05900000035762787
-.04699999839067459
-.0729999989271164
-.1340000033378601
-.16699999570846558
-.16300000250339508
-.14300000667572021
-.10300000011920929
-.06300000101327896
-.03799999877810478
-.026000000536441803
-.023000000044703484
-.03099999949336052
-.04600000008940697
-.05000000074505806
-.09799999743700027
-.13600000739097595
-.15600000321865082
-.14100000262260437
-.10400000214576721
-.06800000369548798
-.04100000113248825
-.03500000014901161
-.041999999433755875
-.07000000029802322
-.0820000022649765
-.09200000017881393
-.08299999684095383
-.0560000017285347
-.03099999949336052
.006000000052154064
.03099999949336052
.010999999940395355
-.006000000052154064
-.004000000189989805
-.006000000052154064
.02500000037252903
.06499999761581421
.07999999821186066
.06400000303983688
.04100000113248825
0.
.003000000026077032
.0430000014603138
.06800000369548798
.09399999678134918
.0989999994635582
.07699999958276749
.06499999761581421
.06800000369548798
.07000000029802322
.07699999958276749
.11100000143051147
.13899999856948853
.17499999701976776
.18700000643730164
.17800000309944153
.14499999582767487
.07400000095367432
.02800000086426735
.007000000216066837
.020999999716877937
.035999998450279236
.0430000014603138
.029999999329447746
.026000000536441803
.028999999165534973
.03400000184774399
.05999999865889549
.054999999701976776
.017999999225139618
-.024000000208616257
-.04899999871850014
-.057999998331069946
-.03999999910593033
-.01899999938905239
-.017000000923871994
-.019999999552965164
-.04600000008940697
-.06800000369548798
-.07699999958276749
-.07199999690055847
-.06700000166893005
-.06400000303983688
-.050999999046325684
-.0430000014603138
-.03500000014901161
-.019999999552965164
-.03400000184774399
-.06300000101327896
-.08399999886751175
-.10100000351667404
-.10199999809265137
-.05999999865889549
-.029999999329447746
.004999999888241291
.032999999821186066
.029999999329447746
.02500000037252903
.020999999716877937
.006000000052154064
-.008999999612569809
-.01600000075995922
-.019999999552965164
-.026000000536441803
-.02500000037252903
-.03400000184774399
-.03799999877810478
-.04399999976158142
-.04500000178813934
-.01899999938905239
.007000000216066837
.02199999988079071
.01899999938905239
.007000000216066837
-.017000000923871994
-.02800000086426735
-.06499999761581421
-.07000000029802322
-.052000001072883606
-.026000000536441803
.012000000104308128
.032999999821186066
.01899999938905239
-.004999999888241291
-.04399999976158142
-.0689999982714653
-.03700000047683716
.017000000923871994
.0689999982714653
.1120000034570694
.11400000005960464
.10899999737739563
.09300000220537186
.10000000149011612
.12099999934434891
.1589999943971634
.18400000035762787
.18199999630451202
.1850000023841858
.15700000524520874
.11999999731779099
.07599999755620956
.04699999839067459
-.003000000026077032
-.06300000101327896
-.12300000339746475
-.16200000047683716
-.15800000727176666
-.12600000202655792
-.09300000220537186
-.05999999865889549
-.035999998450279236
-.017999999225139618
-.04500000178813934
-.0430000014603138
-.03200000151991844
-.019999999552965164
-.014000000432133675
-.014999999664723873
-.004999999888241291
-.006000000052154064
-.013000000268220901
-.061000000685453415
-.09700000286102295
-.11800000071525574
-.07699999958276749
.00800000037997961
.18299999833106995
.4440000057220459
.7409999966621399
.9869999885559082
1.1200000047683716
1.059000015258789
.8199999928474426
.49399998784065247
.1599999964237213
-.10000000149011612
-.22100000083446503
-.22699999809265137
-.2070000022649765
-.14499999582767487
-.06800000369548798
-.007000000216066837
.029999999329447746
.028999999165534973
-.00800000037997961
-.054999999701976776
-.08699999749660492
-.09399999678134918
-.08299999684095383
-.0820000022649765
-.10100000351667404
-.1080000028014183
-.10700000077486038
-.08500000089406967
-.05900000035762787
-.027000000700354576
-.008999999612569809
-.023000000044703484
-.041999999433755875
-.0560000017285347
-.04800000041723251
-.03099999949336052
-.004999999888241291
.019999999552965164
.014999999664723873
-.008999999612569809
-.05400000140070915
-.08699999749660492
-.0949999988079071
-.0560000017285347
-.017000000923871994
.024000000208616257
.0560000017285347
.032999999821186066
.0020000000949949026
-.008999999612569809
-.014999999664723873
-.019999999552965164
-.05700000002980232
-.07699999958276749
-.05700000002980232
.007000000216066837
.08799999952316284
.16699999570846558
.210999995470047
.2029999941587448
.15399999916553497
.09000000357627869
.08399999886751175
.09399999678134918
.0949999988079071
.09700000286102295
.11400000005960464
.14399999380111694
.1899999976158142
.2280000001192093
.2529999911785126
.2540000081062317
.23399999737739563
.20800000429153442
.17800000309944153
.1340000033378601
.09099999815225601
.07599999755620956
.08299999684095383
.10100000351667404
.12600000202655792
.12800000607967377
.12600000202655792
.08799999952316284
.05900000035762787
.08299999684095383
.1340000033378601
.17299999296665192
.18000000715255737
.16300000250339508
.10700000077486038
.06400000303983688
-.004999999888241291
-.00800000037997961
.008999999612569809
.008999999612569809
.020999999716877937
.03999999910593033
.06599999964237213
.08500000089406967
.08799999952316284
.06300000101327896
.0560000017285347
.008999999612569809
-.02500000037252903
-.03200000151991844
.003000000026077032
.04500000178813934
.06800000369548798
.06800000369548798
.06199999898672104
.07000000029802322
.07500000298023224
.08399999886751175
.07999999821186066
.07000000029802322
.02800000086426735
-.004000000189989805
0.
.04399999976158142
.10999999940395355
.15000000596046448
.1340000033378601
.09799999743700027
.07100000232458115
.03200000151991844
.032999999821186066
.039000000804662704
.039000000804662704
.04399999976158142
.05700000002980232
.06400000303983688
.0949999988079071
.11100000143051147
.0860000029206276
.05900000035762787
.028999999165534973
.03500000014901161
.0560000017285347
.0949999988079071
.11500000208616257
.1080000028014183
.09300000220537186
.0689999982714653
.039000000804662704
.04899999871850014
.09200000017881393
.12800000607967377
.18700000643730164
.2160000056028366
.20499999821186066
.20200000703334808
.19699999690055847
.1889999955892563
.22599999606609344
.25999999046325684
.23600000143051147
.21299999952316284
.164000004529953
.08799999952316284
.02800000086426735
-.03200000151991844
-.09399999678134918
-.10599999874830246
-.07999999821186066
-.041999999433755875
.029999999329447746
.0820000022649765
.08900000154972076
.07000000029802322
.020999999716877937
-.026000000536441803
-.05400000140070915
-.052000001072883606
-.03799999877810478
-.006000000052154064
.013000000268220901
.0010000000474974513
-.029999999329447746
-.08799999952316284
-.13699999451637268
-.125
-.04399999976158142
.13199999928474426
.37700000405311584
.6629999876022339
.9070000052452087
1.0529999732971191
1.0490000247955322
.8899999856948853
.6200000047683716
.3160000145435333
.06400000303983688
-.11100000143051147
-.1899999976158142
-.20100000500679016
-.15600000321865082
-.09799999743700027
-.05700000002980232
-.032999999821186066
-.041999999433755875
-.04899999871850014
-.06199999898672104
-.07199999690055847
-.04500000178813934
-.009999999776482582
.0020000000949949026
.004999999888241291
-.008999999612569809
-.029999999329447746
-.02500000037252903
-.050999999046325684
-.07699999958276749
-.07000000029802322
-.08299999684095383
-.07699999958276749
-.05000000074505806
-.03400000184774399
.004000000189989805
.03799999877810478
.032999999821186066
.023000000044703484
.029999999329447746
-.003000000026077032
-.03099999949336052
-.04399999976158142
-.05700000002980232
-.03200000151991844
-.004000000189989805
.026000000536441803
.04100000113248825
.03500000014901161
-.004000000189989805
-.026000000536441803
-.035999998450279236
-.039000000804662704
-.020999999716877937
.0020000000949949026
.03099999949336052
.050999999046325684
.0689999982714653
.07999999821186066
.09700000286102295
.10000000149011612
.10599999874830246
.11800000071525574
.13199999928474426
.11900000274181366
.09700000286102295
.06400000303983688
.05400000140070915
.05999999865889549
.07000000029802322
.0949999988079071
.12399999797344208
.14000000059604645
.1459999978542328
.14000000059604645,1667232027.412965
.10999999940395355
.10499999672174454
.0949999988079071
.09799999743700027
.11400000005960464
.10899999737739563
.0989999994635582
.08799999952316284
.08299999684095383
.09399999678134918
.12099999934434891
.1289999932050705
.1120000034570694
.0860000029206276
.04600000008940697
.02500000037252903
.017000000923871994
.004000000189989805
.006000000052154064
.019999999552965164
.029999999329447746
.027000000700354576
.020999999716877937
-.010999999940395355
-.03700000047683716
-.05000000074505806
-.054999999701976776
-.023000000044703484
-.004999999888241291
0.
-.00800000037997961
-.027000000700354576
-.041999999433755875
-.03799999877810478
-.035999998450279236
-.03999999910593033
-.04399999976158142
-.041999999433755875
-.01600000075995922
.00800000037997961
.035999998450279236
.05900000035762787
.0729999989271164
.05700000002980232
.028999999165534973
-.014999999664723873
-.024000000208616257
-.02199999988079071
-.010999999940395355
.01899999938905239
.03400000184774399
.03799999877810478
.024000000208616257
.004000000189989805
-.02500000037252903
-.023000000044703484
-.03200000151991844
-.026000000536441803
-.014999999664723873
-.010999999940395355
-.003000000026077032
-.004999999888241291
.0020000000949949026
.007000000216066837
.023000000044703484
.03099999949336052
.03700000047683716
.02500000037252903
0.
-.008999999612569809
.01899999938905239
.05900000035762787
.10899999737739563
.1550000011920929
.17399999499320984
.16300000250339508
.13600000739097595
.08500000089406967
.0729999989271164
.07400000095367432
.08100000023841858
.10999999940395355
.13600000739097595
.12600000202655792
.08900000154972076
.041999999433755875
-.01600000075995922
-.04899999871850014
-.05999999865889549
-.03700000047683716
-.006000000052154064
.0010000000474974513
-.009999999776482582
-.03400000184774399
-.05900000035762787
-.07199999690055847
-.0560000017285347
-.05400000140070915
-.07800000160932541
-.10199999809265137
-.1379999965429306
-.1340000033378601
-.09300000220537186
-.05700000002980232
-.017000000923871994
-.00800000037997961
-.03099999949336052
-.09200000017881393
-.13500000536441803
-.12399999797344208
-.02500000037252903
.17299999296665192
.4359999895095825
.7490000128746033
.9980000257492065
1.128000020980835
1.0839999914169312
.8769999742507935
.5789999961853027
.26499998569488525
-.006000000052154064
-.19099999964237213
-.2370000034570694
-.22200000286102295
-.17499999701976776
-.11400000005960464
-.10499999672174454
-.11100000143051147
-.14300000667572021
-.17399999499320984
-.164000004529953
-.11299999803304672
-.06499999761581421
-.014999999664723873
-.0020000000949949026
-.03099999949336052
-.061000000685453415
-.10999999940395355
-.14399999380111694
-.1469999998807907
-.13699999451637268
-.12600000202655792
-.08900000154972076
-.06599999964237213
-.04500000178813934
-.03999999910593033
-.05299999937415123
-.06800000369548798
-.07199999690055847
-.0689999982714653
-.04500000178813934
-.028999999165534973
-.04100000113248825
-.05700000002980232
-.07900000363588333
-.09700000286102295
-.0820000022649765
-.06400000303983688
-.04600000008940697
-.028999999165534973
-.041999999433755875
-.05900000035762787
-.06800000369548798
-.0689999982714653
-.06400000303983688
-.041999999433755875
-.019999999552965164
.009999999776482582
.04800000041723251
.06400000303983688
.05900000035762787
.041999999433755875
.017999999225139618
-.004999999888241291
-.0020000000949949026
.024000000208616257
.06400000303983688
.09700000286102295
.10199999809265137
.08500000089406967
.0729999989271164
.06800000369548798
.07199999690055847
.07400000095367432
.0820000022649765
.07999999821186066
.08500000089406967
.09200000017881393
.09000000357627869
.07500000298023224
.0689999982714653
.0560000017285347
.057999998331069946
.07000000029802322
.0860000029206276
.08699999749660492
.06300000101327896
.028999999165534973
.0020000000949949026
-.00800000037997961
-.01600000075995922
-.04100000113248825
-.057999998331069946
-.05700000002980232
-.09300000220537186
-.1120000034570694
-.11599999666213989
-.11599999666213989
-.09099999815225601
-.0560000017285347
-.028999999165534973
-.012000000104308128
-.03700000047683716
-.08399999886751175
-.11400000005960464
-.11999999731779099
-.10599999874830246
-.08399999886751175
-.061000000685453415
-.041999999433755875
-.052000001072883606
-.05900000035762787
-.05299999937415123
-.054999999701976776
-.07100000232458115
-.07500000298023224
-.08799999952316284
-.08699999749660492
-.07100000232458115
-.05299999937415123
-.01899999938905239
.004999999888241291
.008999999612569809
0.
-.012000000104308128
-.054999999701976776
-.08699999749660492
-.09799999743700027
-.1080000028014183
-.09700000286102295
-.0949999988079071
-.09200000017881393
-.07800000160932541
-.07999999821186066
-.08500000089406967
-.09000000357627869
-.07699999958276749
-.06400000303983688
-.04600000008940697
-.014999999664723873
0.
.02199999988079071
.027000000700354576
.00800000037997961
-.00800000037997961
.00800000037997961
.03500000014901161
.06499999761581421
.10899999737739563
.125
.1340000033378601
.1080000028014183
.08500000089406967
.07900000363588333
.09399999678134918
.0989999994635582
.08100000023841858
.06199999898672104
.0430000014603138
.01899999938905239
.004999999888241291
-.004000000189989805
-.017000000923871994
-.04100000113248825
-.0560000017285347
-.06599999964237213
-.0860000029206276
-.08699999749660492
-.08699999749660492
-.08399999886751175
-.06599999964237213
-.04800000041723251
-.05400000140070915
-.057999998331069946
-.0820000022649765
-.11100000143051147
-.09399999678134918
-.07199999690055847
-.05000000074505806
-.04899999871850014
-.08799999952316284
-.15000000596046448
-.19699999690055847
-.17399999499320984
-.06199999898672104
.13899999856948853
.4059999883174896
.7049999833106995
.968999981880188
1.1230000257492065,1667232028.3972914
1.1239999532699585
.9509999752044678
.6240000128746033
.24500000476837158
-.06199999898672104
-.2590000033378601
-.3100000023841858
-.2680000066757202
-.21299999952316284
-.1589999943971634
-.1080000028014183
-.08799999952316284
-.06300000101327896
-.052000001072883606
-.07500000298023224
-.12099999934434891
-.15000000596046448
-.1599999964237213
-.14499999582767487
-.11400000005960464
-.09399999678134918
-.07999999821186066
-.07800000160932541
-.06800000369548798
-.09099999815225601
-.1080000028014183
-.1340000033378601
-.15600000321865082
-.16899999976158142
-.14000000059604645
-.09000000357627869
-.050999999046325684
-.02800000086426735
-.04699999839067459
-.0820000022649765
-.12600000202655792
-.1599999964237213
-.16099999845027924
-.11999999731779099
-.07999999821186066
-.061000000685453415
-.04100000113248825
-.04699999839067459
-.06400000303983688
-.08699999749660492
-.1080000028014183
-.11999999731779099
-.10300000011920929
-.0949999988079071
-.06800000369548798
-.020999999716877937
-.0010000000474974513
.012000000104308128
.0020000000949949026
.004000000189989805
.008999999612569809
.028999999165534973
.039000000804662704
.04100000113248825
.03500000014901161
.014000000432133675
-.014000000432133675
-.052000001072883606
-.050999999046325684
-.03799999877810478
.006000000052154064
.07000000029802322
.10000000149011612
.125
.10199999809265137
.0820000022649765
.052000001072883606
.054999999701976776
.035999998450279236
.01600000075995922
.004999999888241291
-.017000000923871994
-.010999999940395355
-.006000000052154064
.017999999225139618
.014999999664723873
.01600000075995922
.006000000052154064
-.009999999776482582
-.029999999329447746
-.06499999761581421
-.08500000089406967
-.0989999994635582
-.10400000214576721
-.10999999940395355
-.10000000149011612
-.08399999886751175
-.07100000232458115
-.061000000685453415
-.07699999958276749
-.10000000149011612
-.12999999523162842
-.16300000250339508
-.18700000643730164
-.16200000047683716
-.125
-.09300000220537186
-.07599999755620956
-.07100000232458115
-.05900000035762787
-.04800000041723251
-.04600000008940697
-.057999998331069946
-.06400000303983688
-.07900000363588333
-.10000000149011612
-.12800000607967377
-.12800000607967377
-.11699999868869781
-.1080000028014183
-.09099999815225601
-.07999999821186066
-.06700000166893005
-.06700000166893005
-.08100000023841858
-.09600000083446503
-.08900000154972076
-.07800000160932541
-.08399999886751175
-.09700000286102295
-.13899999856948853
-.16300000250339508
-.1720000058412552
-.1889999955892563
-.16300000250339508
-.13699999451637268
-.12600000202655792
-.11699999868869781
-.07100000232458115
-.026000000536441803
.01600000075995922
.052000001072883606
.03200000151991844
.02199999988079071
-.004999999888241291
-.0430000014603138
-.05700000002980232
-.029999999329447746
0.
.024000000208616257
.04399999976158142
.04100000113248825
.04100000113248825
.04800000041723251
.05299999937415123
.06800000369548798
.07100000232458115
.06499999761581421
.026000000536441803
-.02500000037252903
-.07500000298023224
-.13300000131130219
-.1720000058412552
-.1860000044107437
-.1809999942779541
-.14900000393390656
-.12800000607967377
-.1340000033378601
-.1599999964237213
-.18000000715255737
-.20200000703334808
-.20100000500679016
-.18400000035762787
-.164000004529953
-.13699999451637268
-.125
-.11400000005960464
-.12600000202655792
-.15000000596046448
-.20499999821186066
-.2529999911785126
-.28200000524520874
-.26499998569488525
-.1809999942779541
-.01899999938905239
.2290000021457672
.5189999938011169
.7960000038146973
.9890000224113464
1.034999966621399
.9290000200271606
.6899999976158142
.38600000739097595
.09099999815225601
-.1469999998807907
-.2939999997615814
-.3370000123977661
-.3100000023841858
-.24799999594688416
-.18799999356269836
-.16699999570846558
-.16099999845027924
-.18400000035762787
-.20399999618530273
-.21899999678134918
-.22200000286102295
-.21299999952316284
-.1940000057220459
-.1720000058412552
-.1420000046491623
-.11900000274181366
-.13500000536441803
-.15199999511241913
-.1770000010728836
-.17599999904632568
-.16300000250339508
-.13899999856948853
-.14000000059604645
-.15000000596046448
-.16599999368190765
-.18199999630451202
-.1720000058412552
-.14800000190734863
-.13600000739097595
-.13600000739097595
-.11900000274181366
-.11100000143051147
-.09799999743700027
-.09099999815225601
-.11400000005960464
-.14900000393390656
-.1589999943971634
-.15700000524520874
-.1469999998807907
-.1340000033378601
-.1420000046491623
-.15199999511241913
-.13600000739097595
-.10999999940395355
-.06700000166893005
-.03200000151991844
-.03999999910593033
-.0560000017285347
-.07100000232458115
-.04100000113248825
-.0010000000474974513
.03799999877810478
.052000001072883606
.041999999433755875
.017999999225139618
-.0020000000949949026
-.004000000189989805
0.
.017999999225139618
.020999999716877937
.027000000700354576
.028999999165534973
.03700000047683716
.03200000151991844
.03099999949336052
.02800000086426735
.024000000208616257
.03099999949336052
.039000000804662704
.020999999716877937
-.0010000000474974513
-.05000000074505806
-.11100000143051147
-.11500000208616257
-.10000000149011612
-.07199999690055847
-.032999999821186066
-.02199999988079071
-.03400000184774399
-.0430000014603138
-.07500000298023224
-.11100000143051147
-.10999999940395355
-.12099999934434891
-.11100000143051147
-.06700000166893005
-.04600000008940697
-.04100000113248825
-.06300000101327896
-.1080000028014183
-.1420000046491623
-.13500000536441803
-.12300000339746475
-.10300000011920929
-.08900000154972076
-.08900000154972076
-.11500000208616257
-.14399999380111694
-.15700000524520874
-.14800000190734863
-.11299999803304672
-.06800000369548798
-.04800000041723251
-.05000000074505806
-.06599999964237213
-.10300000011920929
-.10400000214576721
-.09099999815225601
-.07699999958276749
-.07199999690055847,1667232029.3975158
-.09600000083446503
-.11400000005960464
-.10300000011920929
-.08900000154972076
-.06700000166893005
-.07100000232458115
-.09799999743700027
-.12600000202655792
-.13500000536441803
-.13699999451637268
-.11800000071525574
-.10100000351667404
-.10700000077486038
-.10400000214576721
-.10000000149011612
-.07100000232458115
-.03799999877810478
.004999999888241291
.024000000208616257
.032999999821186066
.024000000208616257
.004000000189989805
-.00800000037997961
-.006000000052154064
.004999999888241291
.014999999664723873
.03400000184774399
.028999999165534973
.03999999910593033
.050999999046325684
.06199999898672104
.07199999690055847
.08299999684095383
.07599999755620956
.04899999871850014
.024000000208616257
-.01600000075995922
-.027000000700354576
-.027000000700354576
-.03099999949336052
-.032999999821186066
-.050999999046325684
-.10000000149011612
-.15000000596046448
-.17499999701976776
-.18400000035762787
-.164000004529953
-.13500000536441803
-.12600000202655792
-.13699999451637268
-.1509999930858612
-.15600000321865082
-.15199999511241913
-.12999999523162842
-.11599999666213989
-.12300000339746475
-.1469999998807907
-.18000000715255737
-.2240000069141388
-.20000000298023224
-.0989999994635582
.11500000208616257
.39800000190734863
.7160000205039978
.9419999718666077
1.0230000019073486
.9449999928474426
.6880000233650208
.36399999260902405
.0560000017285347
-.16099999845027924
-.29100000858306885
-.3230000138282776
-.32600000500679016
-.296999990940094
-.2409999966621399
-.210999995470047
-.18000000715255737
-.14399999380111694
-.13099999725818634
-.1340000033378601
-.14800000190734863
-.1550000011920929
-.1379999965429306
-.11299999803304672
-.10899999737739563
-.10700000077486038
-.11100000143051147
-.12300000339746475
-.1340000033378601
-.1379999965429306
-.14300000667572021
-.14499999582767487
-.164000004529953
-.18299999833106995
-.1860000044107437
-.16899999976158142
-.13699999451637268
-.11100000143051147
-.08500000089406967
-.07900000363588333
-.08100000023841858
-.1120000034570694
-.12300000339746475
-.14900000393390656
-.1599999964237213
-.15199999511241913
-.1340000033378601
-.10199999809265137
-.08699999749660492
-.0820000022649765
-.10700000077486038
-.1289999932050705
-.15199999511241913
-.1289999932050705
-.10000000149011612
-.050999999046325684
-.004999999888241291
.0020000000949949026
.013000000268220901
-.004000000189989805
-.028999999165534973
-.057999998331069946
-.06800000369548798
-.0820000022649765
-.06499999761581421
-.050999999046325684
-.02500000037252903
.01600000075995922
.029999999329447746
.039000000804662704
.03799999877810478
.04399999976158142
.039000000804662704
.041999999433755875
.017999999225139618
-.012000000104308128
-.035999998450279236
-.05900000035762787
-.07500000298023224
-.061000000685453415
-.04500000178813934
-.03400000184774399
-.014999999664723873
-.006000000052154064
-.009999999776482582
-.01899999938905239
-.020999999716877937
-.03799999877810478
-.06499999761581421
-.07999999821186066
-.10300000011920929
-.11999999731779099
-.12200000137090683
-.11999999731779099
-.10199999809265137
-.08500000089406967
-.0860000029206276
-.09200000017881393
-.10300000011920929
-.11699999868869781
-.12600000202655792
-.11599999666213989
-.09200000017881393
-.0729999989271164
-.08100000023841858
-.08500000089406967
-.10899999737739563
-.14000000059604645
-.13099999725818634
-.12200000137090683
-.1120000034570694
-.10599999874830246
-.12399999797344208
-.13500000536441803
-.12300000339746475
-.10999999940395355
-.10000000149011612
-.07599999755620956
-.05700000002980232
-.05900000035762787
-.05299999937415123
-.057999998331069946
-.07900000363588333
-.0949999988079071
-.10499999672174454
-.10999999940395355
-.08699999749660492
-.05999999865889549
-.05299999937415123
-.05999999865889549
-.07699999958276749
-.0820000022649765
-.07699999958276749
-.07900000363588333
-.07500000298023224
-.07500000298023224
-.08799999952316284
-.10000000149011612
-.09200000017881393
-.05000000074505806
-.007000000216066837
.01899999938905239
.02800000086426735
.014999999664723873
.0010000000474974513
-.003000000026077032
.004999999888241291
.03700000047683716
.05900000035762787
.041999999433755875
.026000000536441803
.01600000075995922
.027000000700354576
.0560000017285347
.07900000363588333
.09799999743700027
.09799999743700027
.07000000029802322
.026000000536441803
-.013000000268220901
-.054999999701976776
-.09000000357627869
-.1289999932050705
-.1550000011920929
-.15199999511241913
-.14000000059604645
-.11400000005960464
-.09600000083446503
-.09700000286102295
-.0989999994635582
-.10899999737739563
-.11299999803304672
-.09700000286102295
-.08500000089406967
-.0989999994635582
-.11999999731779099
-.1509999930858612
-.1889999955892563
-.18799999356269836
-.17800000309944153
-.1550000011920929
-.11900000274181366
-.06199999898672104
.04399999976158142
.2199999988079071
.46299999952316284
.7210000157356262
.9340000152587891
.9980000257492065
.9120000004768372
.6909999847412109
.3930000066757202
.10199999809265137
-.11900000274181366
-.22599999606609344
-.2639999985694885
-.25099998712539673
-.23199999332427979
-.19599999487400055
-.16899999976158142
-.1509999930858612
-.1420000046491623
-.1289999932050705
-.12099999934434891
-.12800000607967377
-.13199999928474426
-.1469999998807907
-.16200000047683716
-.1720000058412552
-.17299999296665192
-.16500000655651093
-.1509999930858612
-.15199999511241913
-.13899999856948853
-.11100000143051147
-.0989999994635582
-.10400000214576721
-.1080000028014183
-.13699999451637268
-.15800000727176666
-.164000004529953
-.1550000011920929
-.1080000028014183
-.08500000089406967
-.08299999684095383
-.09200000017881393
-.10400000214576721
-.10899999737739563
-.09799999743700027
-.10100000351667404
-.09300000220537186
-.0729999989271164
-.08299999684095383
-.07699999958276749
-.07100000232458115
-.0729999989271164
-.07999999821186066
-.07900000363588333
-.08699999749660492,1667232031.3979106
-.08500000089406967
-.052000001072883606
-.024000000208616257
0.
.02800000086426735
.03500000014901161
.02800000086426735
.01899999938905239
-.0010000000474974513
-.00800000037997961
.014000000432133675
.03400000184774399
.04600000008940697
.04500000178813934
.04500000178813934
.04399999976158142
.054999999701976776
.06599999964237213
.07500000298023224
.07500000298023224
.05700000002980232
.01899999938905239
-.009999999776482582
-.01600000075995922
.0010000000474974513
.02500000037252903
.027000000700354576
.010999999940395355
-.007000000216066837
-.02500000037252903
-.02800000086426735
-.013000000268220901
.01600000075995922
.0430000014603138
.04800000041723251
.014999999664723873
-.026000000536441803
-.0689999982714653
-.10300000011920929
-.11500000208616257
-.10400000214576721
-.0820000022649765
-.05000000074505806
-.03099999949336052
-.04399999976158142
-.07000000029802322
-.1080000028014183
-.12999999523162842
-.12399999797344208
-.08799999952316284
-.054999999701976776
-.017999999225139618
-.004999999888241291
-.014999999664723873
-.03700000047683716
-.054999999701976776
-.06599999964237213
-.07199999690055847
-.041999999433755875
-.028999999165534973
-.03099999949336052
-.02800000086426735
-.03200000151991844
-.04399999976158142
-.04800000041723251
-.057999998331069946
-.06700000166893005
-.04699999839067459
-.0560000017285347
-.050999999046325684
-.026000000536441803
-.010999999940395355
-.007000000216066837
-.013000000268220901
-.02500000037252903
-.035999998450279236
-.041999999433755875
-.03099999949336052
-.009999999776482582
-.0010000000474974513
0.
0.
-.013000000268220901
-.012000000104308128
0.
.023000000044703484
.04100000113248825
.0430000014603138
.05400000140070915
.0729999989271164
.10899999737739563
.14499999582767487
.1770000010728836
.18700000643730164
.17499999701976776
.16300000250339508
.15700000524520874
.17399999499320984
.1899999976158142
.18000000715255737
.15399999916553497
.11599999666213989
.08699999749660492
.07400000095367432
.07699999958276749
.06499999761581421
.05000000074505806
.029999999329447746
.017999999225139618
.013000000268220901
.009999999776482582
-.007000000216066837
-.035999998450279236
-.05000000074505806
-.03099999949336052
-.00800000037997961
.017999999225139618
.017000000923871994
-.012000000104308128
-.041999999433755875
-.07100000232458115
-.07199999690055847
-.061000000685453415
-.06400000303983688
-.09300000220537186
-.11500000208616257
-.1080000028014183
-.01600000075995922
.16200000047683716
.4339999854564667
.75
1.034000039100647
1.190000057220459
1.180999994277954
.9810000061988831
.640999972820282
.2669999897480011
-.04600000008940697
-.2290000021457672
-.27900001406669617
-.24199999868869781
-.19599999487400055
-.1459999978542328
-.15000000596046448
-.16599999368190765
-.17399999499320984
-.13199999928474426
-.09200000017881393
-.05999999865889549
-.032999999821186066
-.04100000113248825
-.06700000166893005
-.10000000149011612
-.11900000274181366
-.11800000071525574
-.07900000363588333
-.06700000166893005
-.054999999701976776
-.054999999701976776
-.07500000298023224
-.09600000083446503
-.10100000351667404
-.08900000154972076
-.06300000101327896
-.04399999976158142
-.04699999839067459
-.06400000303983688
-.07400000095367432
-.06599999964237213
-.05299999937415123
-.035999998450279236
-.012000000104308128
-.009999999776482582
-.0020000000949949026
-.004000000189989805
-.006000000052154064
.004000000189989805
.004999999888241291
-.007000000216066837
-.009999999776482582
-.014000000432133675
-.014000000432133675
-.007000000216066837
-.023000000044703484
-.024000000208616257
-.032999999821186066
-.04500000178813934
-.03099999949336052
-.013000000268220901
.004000000189989805
.035999998450279236
.057999998331069946
.08399999886751175
.1120000034570694
.1120000034570694
.10199999809265137
.10899999737739563
.09600000083446503
.08500000089406967
.09399999678134918
.09600000083446503
.09700000286102295
.09600000083446503
.08299999684095383
.07999999821186066
.08500000089406967
.08900000154972076
.09799999743700027
.12700000405311584
.14300000667572021
.14300000667572021
.11100000143051147
.04399999976158142
-.009999999776482582
-.04399999976158142
-.03700000047683716
-.004999999888241291
.019999999552965164
.020999999716877937
.0020000000949949026
-.027000000700354576
-.03400000184774399
-.014000000432133675
-.029999999329447746
-.0560000017285347
-.06700000166893005
-.07500000298023224
-.0689999982714653
-.04699999839067459
-.03999999910593033
-.03200000151991844
-.03200000151991844
-.039000000804662704
-.020999999716877937
.0020000000949949026
-.004000000189989805
-.027000000700354576
-.04600000008940697
-.06300000101327896
-.03999999910593033
-.009999999776482582
.0010000000474974513
.004000000189989805
-.008999999612569809
-.01899999938905239
-.01600000075995922
-.004000000189989805
.02199999988079071
.05299999937415123
.05999999865889549
.04800000041723251
.04100000113248825
.0430000014603138
.04800000041723251
.05299999937415123
.06700000166893005
.07500000298023224
.06400000303983688
.06599999964237213
.07599999755620956
.07900000363588333
.0729999989271164
.03200000151991844
-.017999999225139618
-.05700000002980232
-.07500000298023224
-.0560000017285347
-.017999999225139618
.029999999329447746
.0729999989271164
.0949999988079071
.12099999934434891
.1379999965429306
.14499999582767487
.15399999916553497
.16200000047683716
.15000000596046448
.16500000655651093
.1770000010728836
.16599999368190765
.17100000381469727
.17399999499320984
.17599999904632568
.1809999942779541
.164000004529953
.12600000202655792
.09399999678134918
.04899999871850014
.01899999938905239
-.0010000000474974513
-.009999999776482582
.0020000000949949026
.014000000432133675
.024000000208616257
.03200000151991844
.02199999988079071
-.014999999664723873
-.028999999165534973
-.05000000074505806
-.0430000014603138
-.02199999988079071
-.004999999888241291
.0010000000474974513
-.004999999888241291
-.02199999988079071
-.04600000008940697
-.06400000303983688
-.11400000005960464
-.1340000033378601
-.11599999666213989
-.020999999716877937
.16500000655651093
.4300000071525574
.765999972820282
1.0859999656677246
1.2799999713897705
1.2799999713897705
1.0759999752044678
.7179999947547913
.3440000116825104
.027000000700354576
-.16599999368190765
-.2199999988079071
-.18700000643730164
-.15800000727176666
-.13300000131130219
-.13099999725818634
-.12600000202655792
-.11299999803304672
-.08500000089406967
-.03200000151991844
.029999999329447746
.09200000017881393
.10000000149011612
.10199999809265137
.08799999952316284
.08100000023841858
.06800000369548798
.0430000014603138
.004999999888241291
-.03799999877810478
-.0820000022649765
-.0989999994635582
-.04600000008940697
.01600000075995922
.06300000101327896
.07900000363588333
.05700000002980232
.0430000014603138
.04800000041723251
.06700000166893005
.08299999684095383
.10400000214576721
.08799999952316284
.07000000029802322
.05700000002980232
.052000001072883606
.06499999761581421
.07500000298023224
.07500000298023224
.061000000685453415
.054999999701976776
.05700000002980232
.06499999761581421
.08399999886751175
.0989999994635582
.09600000083446503
.09000000357627869
.08900000154972076
.0949999988079071
.1080000028014183
.11999999731779099
.10899999737739563
.0989999994635582
.09200000017881393
.06400000303983688
.052000001072883606
.03400000184774399
-.006000000052154064
-.004999999888241291
.03700000047683716
.10400000214576721
.1850000023841858
.23600000143051147
.24500000476837158
.2150000035762787
.15600000321865082
.09300000220537186
.061000000685453415
.052000001072883606
.0430000014603138
.03799999877810478
.03799999877810478
.04100000113248825
.026000000536441803
.02500000037252903
.020999999716877937
.02800000086426735
.024000000208616257
.0020000000949949026
-.0020000000949949026
-.0020000000949949026
0.
.0020000000949949026
-.012000000104308128
-.03799999877810478
-.0689999982714653
-.11400000005960464
-.1340000033378601
-.1340000033378601
-.10499999672174454
-.07599999755620956
-.052000001072883606
-.05700000002980232
-.07900000363588333
-.10999999940395355
-.13699999451637268
-.14000000059604645
-.11299999803304672
-.057999998331069946
-.01899999938905239
.009999999776482582
.008999999612569809
-.004000000189989805
-.017999999225139618
-.020999999716877937
-.006000000052154064
.017999999225139618
.024000000208616257
.004999999888241291
-.02800000086426735
-.06800000369548798
-.09399999678134918
-.10300000011920929
-.10400000214576721
-.08699999749660492
-.08399999886751175
-.07199999690055847
-.05700000002980232
-.04699999839067459
-.03700000047683716
-.03799999877810478
-.0560000017285347
-.07800000160932541
-.10000000149011612
-.12600000202655792
-.1340000033378601
-.10700000077486038
-.06800000369548798
-.028999999165534973
.003000000026077032
.014999999664723873
.02800000086426735
.020999999716877937
.020999999716877937
.020999999716877937
.052000001072883606
.07100000232458115
.07999999821186066
.08799999952316284
.08900000154972076
.08900000154972076
.07500000298023224
.057999998331069946
.03700000047683716
.029999999329447746
.019999999552965164
-.00800000037997961
-.024000000208616257
-.05700000002980232
-.07900000363588333
-.07699999958276749
-.06499999761581421
-.04100000113248825
-.020999999716877937
-.02500000037252903
-.052000001072883606
-.06599999964237213
-.08100000023841858
-.09200000017881393
-.0820000022649765
-.07100000232458115
-.0689999982714653
-.05900000035762787
-.0689999982714653
-.10400000214576721
-.1550000011920929
-.21799999475479126
-.28999999165534973
-.3160000145435333
-.2680000066757202
-.1509999930858612
.07100000232458115
.35499998927116394
.6579999923706055
.9150000214576721
1.0570000410079956
1.0490000247955322
.8740000128746033
.5860000252723694
.24300000071525574
-.06800000369548798
-.2720000147819519
-.33799999952316284
-.30799999833106995
-.23199999332427979
-.1469999998807907
-.11999999731779099
-.12700000405311584
-.12600000202655792
-.1289999932050705
-.12200000137090683
-.12200000137090683
-.12300000339746475
-.14000000059604645
-.14499999582767487
-.13500000536441803
-.13699999451637268
-.11800000071525574
-.11900000274181366
-.14499999582767487
-.1589999943971634
-.1509999930858612
-.15299999713897705
-.1420000046491623
-.13500000536441803
-.13500000536441803
-.13199999928474426
-.12399999797344208
-.12099999934434891
-.11999999731779099
-.11299999803304672
-.11500000208616257
-.11500000208616257
-.10700000077486038
-.0989999994635582
-.10599999874830246
-.10899999737739563
-.10899999737739563
-.10300000011920929
-.08399999886751175
-.07699999958276749
-.07800000160932541
-.07500000298023224
-.06199999898672104
-.04699999839067459
-.032999999821186066
-.003000000026077032
.00800000037997961
.004999999888241291
-.004000000189989805
-.019999999552965164
-.03099999949336052
-.04100000113248825
-.050999999046325684
-.04500000178813934
-.01899999938905239
-.009999999776482582
.004999999888241291
.006000000052154064
.003000000026077032
.02199999988079071
.03999999910593033
.057999998331069946
.0729999989271164
.07400000095367432
.052000001072883606
.050999999046325684
.04500000178813934
.04899999871850014
.06800000369548798
.06800000369548798
.06199999898672104
.03200000151991844
-.004999999888241291
-.03999999910593033
-.061000000685453415
-.06199999898672104
-.05299999937415123
-.052000001072883606
-.061000000685453415
-.06499999761581421
-.07199999690055847
-.06800000369548798
-.050999999046325684
-.041999999433755875
-.050999999046325684
-.0820000022649765
-.1080000028014183
-.12399999797344208
-.11900000274181366
-.0949999988079071
-.07800000160932541
-.07000000029802322
-.06700000166893005
-.07199999690055847
-.07599999755620956
-.06800000369548798
-.05900000035762787
-.057999998331069946,1667232032.413723
-.052000001072883606
-.05900000035762787
-.07400000095367432
-.07599999755620956
-.07400000095367432
-.07500000298023224
-.07599999755620956
-.07599999755620956
-.0860000029206276
-.09799999743700027
-.11400000005960464
-.11500000208616257
-.10100000351667404
-.08399999886751175
-.07699999958276749
-.07000000029802322
-.04800000041723251
-.04699999839067459
-.06300000101327896
-.07800000160932541
-.08399999886751175
-.07400000095367432
-.07000000029802322
-.0689999982714653
-.052000001072883606
-.03799999877810478
-.03799999877810478
-.02199999988079071
.004000000189989805
.01600000075995922
.007000000216066837
-.026000000536441803
-.052000001072883606
-.0689999982714653
-.05700000002980232
-.029999999329447746
.006000000052154064
.05700000002980232
.08900000154972076
.11100000143051147
.11900000274181366
.11400000005960464
.10499999672174454
.10400000214576721
.10199999809265137
.10499999672174454
.0949999988079071
.054999999701976776
.003000000026077032
-.05299999937415123
-.0989999994635582
-.12300000339746475
-.14900000393390656
-.16500000655651093
-.15000000596046448
-.13199999928474426
-.10300000011920929
-.07900000363588333
-.06800000369548798
-.07400000095367432
-.07400000095367432
-.08500000089406967
-.08100000023841858
-.07400000095367432
-.0729999989271164
-.07599999755620956
-.08699999749660492
-.10199999809265137
-.11400000005960464
-.13500000536441803
-.16200000047683716
-.14399999380111694
-.05299999937415123
.12099999934434891
.3630000054836273
.6669999957084656
.9490000009536743
1.1139999628067017
1.1299999952316284
.9670000076293945
.6549999713897705
.30399999022483826
-.00800000037997961
-.21699999272823334
-.28299999237060547
-.27300000190734863
-.2460000067949295
-.19200000166893005
-.15000000596046448
-.13300000131130219
-.10700000077486038
-.0860000029206276
-.07800000160932541
-.07500000298023224
-.07199999690055847
-.0689999982714653
-.07400000095367432
-.0820000022649765
-.09200000017881393
-.10199999809265137
-.10899999737739563
-.11299999803304672
-.11500000208616257
-.10700000077486038
-.09300000220537186
-.09099999815225601
-.0820000022649765
-.08699999749660492
-.09200000017881393
-.08100000023841858
-.0860000029206276
-.09000000357627869
-.10400000214576721
-.15700000524520874
-.18799999356269836
-.1809999942779541
-.15600000321865082
-.08699999749660492
-.02800000086426735
-.02500000037252903
-.03500000014901161
-.05299999937415123
-.08399999886751175
-.06400000303983688
-.04100000113248825
-.013000000268220901
.013000000268220901
.017000000923871994
.004000000189989805
-.0010000000474974513
-.004000000189989805
-.00800000037997961
0.
.007000000216066837
.026000000536441803
.03799999877810478
.04800000041723251
.06300000101327896
.07199999690055847
.07100000232458115
.06400000303983688
.061000000685453415
.057999998331069946
.06300000101327896
.05400000140070915
.04899999871850014
.03799999877810478
.02800000086426735
.017999999225139618
.02199999988079071
.023000000044703484
.04100000113248825
.04800000041723251
.057999998331069946
.08500000089406967
.09000000357627869
.09099999815225601
.08100000023841858
.05299999937415123
.020999999716877937
.003000000026077032
-.013000000268220901
-.0010000000474974513
.014999999664723873
.024000000208616257
.023000000044703484
.008999999612569809
-.013000000268220901
-.03400000184774399
-.06700000166893005
-.07900000363588333
-.08399999886751175
-.07800000160932541
-.05900000035762787
-.04699999839067459
-.04600000008940697
-.0560000017285347
-.07199999690055847
-.10199999809265137
-.13500000536441803
-.15700000524520874
-.16099999845027924
-.15299999713897705
-.12300000339746475
-.09099999815225601
-.06499999761581421
-.04399999976158142
-.04399999976158142
-.05900000035762787
-.06199999898672104
-.04899999871850014
-.03700000047683716
-.01600000075995922
-.007000000216066837
-.007000000216066837
-.01899999938905239
-.04399999976158142
-.05700000002980232
-.05900000035762787
-.0430000014603138
-.03500000014901161
-.04899999871850014
-.07800000160932541
-.1120000034570694
-.13300000131130219
-.13300000131130219
-.09399999678134918
-.05999999865889549
-.014000000432133675
.012000000104308128
.01899999938905239
.027000000700354576
.010999999940395355
.0010000000474974513
-.019999999552965164
-.04800000041723251
-.054999999701976776
-.032999999821186066
.004000000189989805
.054999999701976776
.11100000143051147
.13099999725818634
.13600000739097595
.11500000208616257
.07500000298023224
.06199999898672104
.06499999761581421
.06800000369548798
.06300000101327896
.05400000140070915
.026000000536441803
-.004000000189989805
-.035999998450279236
-.07400000095367432
-.10100000351667404
-.125
-.14800000190734863
-.16200000047683716
-.17100000381469727
-.18299999833106995
-.2029999941587448
-.20600000023841858
-.1899999976158142
-.13300000131130219
-.06599999964237213
-.020999999716877937
.003000000026077032
-.003000000026077032
-.057999998331069946
-.11500000208616257
-.1720000058412552
-.23600000143051147
-.2540000081062317
-.20000000298023224
-.06599999964237213
.1679999977350235
.47099998593330383
.7609999775886536
1.0169999599456787
1.1369999647140503
1.1019999980926514
.9110000133514404
.6200000047683716
.30300000309944153
.023000000044703484
-.15700000524520874
-.24500000476837158
-.25699999928474426
-.22300000488758087
-.17499999701976776
-.14399999380111694
-.12099999934434891
-.12700000405311584
-.1469999998807907
-.14800000190734863
-.13300000131130219
-.0989999994635582
-.07000000029802322
-.0689999982714653
-.07800000160932541
-.10599999874830246
-.12999999523162842
-.125
-.10599999874830246
-.10199999809265137
-.10499999672174454
-.10899999737739563
-.0989999994635582
-.08399999886751175
-.0729999989271164
-.06800000369548798
-.0689999982714653
-.07599999755620956
-.09300000220537186
-.12200000137090683
-.12200000137090683
-.13199999928474426
-.1080000028014183
-.07000000029802322
-.0430000014603138,1667232033.4136956
-.017000000923871994
-.009999999776482582
-.01899999938905239
-.04399999976158142
-.035999998450279236
-.052000001072883606
-.06400000303983688
-.07000000029802322
-.06499999761581421
-.03099999949336052
.004000000189989805
.012000000104308128
-.0020000000949949026
-.020999999716877937
-.03799999877810478
-.02500000037252903
.007000000216066837
.035999998450279236
.04600000008940697
.0430000014603138
.04500000178813934
.052000001072883606
.06300000101327896
.07199999690055847
.07599999755620956
.07999999821186066
.08399999886751175
.10199999809265137
.12200000137090683
.10899999737739563
.0820000022649765
.04399999976158142
.004000000189989805
.019999999552965164
.041999999433755875
.06199999898672104
.09399999678134918
.10499999672174454
.08799999952316284
.09200000017881393
.07900000363588333
.07199999690055847
.07599999755620956
.04500000178813934
-.013000000268220901
-.07999999821186066
-.12399999797344208
-.1509999930858612
-.13500000536441803
-.09600000083446503
-.04899999871850014
-.006000000052154064
.017999999225139618
.008999999612569809
-.004000000189989805
-.009999999776482582
-.020999999716877937
-.012000000104308128
0.
0.
-.003000000026077032
-.017999999225139618
-.04899999871850014
-.0560000017285347
-.05299999937415123
-.041999999433755875
-.03200000151991844
-.027000000700354576
-.039000000804662704
-.05400000140070915
-.05299999937415123
-.06599999964237213
-.0689999982714653
-.06400000303983688
-.057999998331069946
-.054999999701976776
-.008999999612569809
.03400000184774399
.050999999046325684
.07500000298023224
.05999999865889549
.04699999839067459
.03500000014901161
.00800000037997961
-.012000000104308128
-.013000000268220901
-.01600000075995922
-.024000000208616257
-.017000000923871994
-.020999999716877937
-.006000000052154064
-.02800000086426735
-.03500000014901161
-.02500000037252903
-.013000000268220901
.013000000268220901
.035999998450279236
.039000000804662704
.03500000014901161
.04500000178813934
.029999999329447746
.04800000041723251
.061000000685453415
.07900000363588333
.1080000028014183
.12999999523162842
.15399999916553497
.16899999976158142
.16899999976158142
.15199999511241913
.11900000274181366
.07100000232458115
.023000000044703484
-.003000000026077032
-.04500000178813934
-.0729999989271164
-.09399999678134918
-.09200000017881393
-.08100000023841858
-.07199999690055847
-.06499999761581421
-.07699999958276749
-.06700000166893005
-.07199999690055847
-.07699999958276749
-.07599999755620956
-.06499999761581421
-.06599999964237213
-.06199999898672104
-.06599999964237213
-.07000000029802322
-.08699999749660492
-.12999999523162842
-.1860000044107437
-.20399999618530273
-.13199999928474426
.029999999329447746
.27900001406669617
.5929999947547913
.9300000071525574
1.1440000534057617
1.2130000591278076
1.0850000381469727
.7860000133514404
.42500001192092896
.07999999821186066
-.16300000250339508
-.25699999928474426
-.24199999868869781
-.18799999356269836
-.12399999797344208
-.08799999952316284
-.07699999958276749
-.0860000029206276
-.1080000028014183
-.13500000536441803
-.15800000727176666
-.1589999943971634
-.1340000033378601
-.10599999874830246
-.06300000101327896
-.023000000044703484
-.004999999888241291
.009999999776482582
.010999999940395355
0.
-.017999999225139618
-.03799999877810478
-.07100000232458115
-.09099999815225601
-.09300000220537186
-.08900000154972076
-.08699999749660492
-.08500000089406967
-.08799999952316284
-.08399999886751175
-.08799999952316284
-.09399999678134918
-.09099999815225601
-.07900000363588333
-.0689999982714653
-.06199999898672104
-.054999999701976776
-.04899999871850014
-.041999999433755875
-.035999998450279236
-.008999999612569809
.012000000104308128
.03700000047683716
.054999999701976776
.054999999701976776
.04100000113248825
.020999999716877937
.014000000432133675
.008999999612569809
.017000000923871994
.026000000536441803
.039000000804662704
.06199999898672104
.08100000023841858
.09799999743700027
.10599999874830246
.11100000143051147
.09799999743700027
.09399999678134918
.0949999988079071
.08799999952316284
.09300000220537186
.09600000083446503
.08799999952316284
.09000000357627869
.10199999809265137
.11100000143051147
.10700000077486038
.0949999988079071
.07400000095367432
.0729999989271164
.07900000363588333
.08500000089406967
.09399999678134918
.08699999749660492
.08100000023841858
.06700000166893005
.057999998331069946
.06400000303983688
.06400000303983688
.04500000178813934
.017999999225139618
-.007000000216066837
-.029999999329447746
-.03500000014901161
-.03700000047683716
-.03099999949336052
-.02199999988079071
-.019999999552965164
-.004000000189989805
-.003000000026077032
-.003000000026077032
-.009999999776482582
-.02800000086426735
-.028999999165534973
-.004999999888241291
.014000000432133675
.04399999976158142
.05999999865889549
.03799999877810478
.006000000052154064
-.020999999716877937
-.04100000113248825
-.041999999433755875
-.02199999988079071
-.004000000189989805
.024000000208616257
.03200000151991844
.03400000184774399
.024000000208616257
.017000000923871994
.006000000052154064
-.0010000000474974513
.0020000000949949026
-.004000000189989805
-.0010000000474974513
.006000000052154064
.013000000268220901
.006000000052154064
-.0010000000474974513
-.012000000104308128
-.004999999888241291
.01600000075995922
.03999999910593033
.06199999898672104
.06700000166893005
.05999999865889549
.03799999877810478
.03400000184774399
.035999998450279236
.04399999976158142
.0560000017285347
.07400000095367432
.09399999678134918
.10999999940395355
.1340000033378601
.13699999451637268
.12700000405311584
.10999999940395355
.10300000011920929
.10499999672174454
.11699999868869781
.14000000059604645
.1599999964237213
.1720000058412552
.16500000655651093
.1340000033378601
.09099999815225601
.05400000140070915
.014000000432133675
-.017999999225139618
-.027000000700354576
-.02800000086426735
-.032999999821186066,1667232034.4139488
-.023000000044703484
-.026000000536441803
-.02800000086426735
-.01600000075995922
-.02500000037252903
-.02800000086426735
-.02800000086426735
-.023000000044703484
-.014000000432133675
.0010000000474974513
.009999999776482582
.017000000923871994
.009999999776482582
-.020999999716877937
-.06800000369548798
-.11500000208616257
-.09700000286102295
-.009999999776482582
.16099999845027924
.41100001335144043
.722000002861023
.9879999756813049
1.1319999694824219
1.1080000400543213
.9129999876022339
.6019999980926514
.26100000739097595
-.02199999988079071
-.19699999690055847
-.23800000548362732
-.21199999749660492
-.16300000250339508
-.1120000034570694
-.0820000022649765
-.0820000022649765
-.07500000298023224
-.05900000035762787
-.04600000008940697
-.020999999716877937
-.0010000000474974513
.01899999938905239
.03200000151991844
.03500000014901161
.028999999165534973
.02500000037252903
.009999999776482582
-.0020000000949949026
.009999999776482582
.019999999552965164
.03500000014901161
.039000000804662704
.019999999552965164
-.0020000000949949026
-.02500000037252903
-.04899999871850014
-.06400000303983688
-.0560000017285347
-.04699999839067459
-.02199999988079071
-.006000000052154064
.009999999776482582
.006000000052154064
-.009999999776482582
-.013000000268220901
-.013000000268220901
.00800000037997961
.03500000014901161
.05999999865889549
.06700000166893005
.0689999982714653
.05999999865889549
.05700000002980232
.05400000140070915
.061000000685453415
.07999999821186066
.09300000220537186
.11800000071525574
.12999999523162842
.13699999451637268
.14800000190734863
.1459999978542328
.12099999934434891
.10899999737739563
.10199999809265137
.0989999994635582
.10700000077486038
.11599999666213989
.13099999725818634
.1459999978542328
.15299999713897705
.1550000011920929
.17599999904632568
.19900000095367432
.20600000023841858
.19499999284744263
.16899999976158142
.1289999932050705
.10000000149011612
.07900000363588333
.07999999821186066
.08900000154972076
.10599999874830246
.10899999737739563
.09799999743700027
.0729999989271164
.04899999871850014
.04600000008940697
.0430000014603138
.05700000002980232
.07400000095367432
.09600000083446503
.1120000034570694
.12099999934434891
.09399999678134918
.07199999690055847
.05299999937415123
.010999999940395355
.004000000189989805
.014999999664723873
.04100000113248825
.05700000002980232
.057999998331069946
.041999999433755875
.027000000700354576
.020999999716877937
.01600000075995922
.0010000000474974513
-.012000000104308128
-.013000000268220901
-.020999999716877937
-.004999999888241291
.02199999988079071
.05000000074505806
.07900000363588333
.09300000220537186
.09200000017881393
.09399999678134918
.0860000029206276
.0860000029206276
.0689999982714653
.035999998450279236
.01600000075995922
0.
-.004000000189989805
.010999999940395355
.02500000037252903
.04699999839067459
.07699999958276749
.07599999755620956
.0729999989271164
.07100000232458115
.06499999761581421
.06400000303983688
.05900000035762787
.06300000101327896
.08699999749660492
.1080000028014183
.11299999803304672
.10700000077486038
.1080000028014183
.11800000071525574
.14000000059604645
.15399999916553497
.1679999977350235
.18000000715255737
.1860000044107437
.17100000381469727
.18000000715255737
.19699999690055847
.1899999976158142
.17100000381469727
.12600000202655792
.07500000298023224
.05000000074505806
.029999999329447746
.01600000075995922
.023000000044703484
.024000000208616257
.026000000536441803
.019999999552965164
.02800000086426735
.010999999940395355
-.010999999940395355
-.03200000151991844
-.04800000041723251
-.03999999910593033
-.012000000104308128
.02199999988079071
.03500000014901161
.035999998450279236
0.
-.03500000014901161
-.07100000232458115
-.10100000351667404
-.10599999874830246
-.07699999958276749
.017000000923871994
.1860000044107437
.4320000112056732
.7229999899864197
.9879999756813049
1.1449999809265137
1.1430000066757202
.9620000123977661
.6570000052452087
.3199999928474426
