-.007000000216066837
-.00800000037997961
-.014000000432133675
-.014000000432133675
-.010999999940395355
-.020999999716877937
-.03999999910593033
-.0560000017285347
-.06300000101327896
-.05900000035762787
-.04899999871850014
-.039000000804662704
-.04399999976158142
-.04699999839067459
-.06199999898672104
-.07500000298023224
-.07599999755620956
-.06300000101327896
-.07100000232458115
-.07599999755620956
-.06700000166893005
-.04800000041723251
-.006000000052154064
.04899999871850014
.1080000028014183
.1599999964237213
.23600000143051147
.30399999022483826
.33799999952316284
.3230000138282776
.22499999403953552
.05999999865889549
-.11100000143051147
-.2639999985694885
-.3569999933242798
-.36500000953674316
-.34200000762939453
-.3009999990463257
-.24500000476837158
-.19200000166893005
-.14000000059604645
-.10100000351667404
-.07000000029802322
-.041999999433755875
-.010999999940395355
-.0020000000949949026
-.009999999776482582
-.017999999225139618
-.026000000536441803
-.03200000151991844
-.02500000037252903
0.
.004000000189989805
.0020000000949949026
.009999999776482582
.003000000026077032
-.0020000000949949026
.0020000000949949026
-.010999999940395355
-.017000000923871994
-.006000000052154064
0.
.00800000037997961
.032999999821186066
.03400000184774399
.03200000151991844
.0430000014603138
.05299999937415123
.07000000029802322
.09099999815225601
.0949999988079071
.08699999749660492
.08799999952316284
.08799999952316284
.09600000083446503
.1080000028014183
.11500000208616257
.12300000339746475
.13600000739097595
.14000000059604645
.15000000596046448
.16599999368190765
.16500000655651093
.15000000596046448
.1469999998807907
.13600000739097595
.13899999856948853
.15199999511241913
.15600000321865082
.15299999713897705
.14800000190734863
.13099999725818634
.11699999868869781
.11999999731779099
.12800000607967377
.14300000667572021
.1459999978542328
.13899999856948853
.11599999666213989
.08799999952316284
.06599999964237213
.04600000008940697
.03700000047683716
.032999999821186066
.02500000037252903
.014999999664723873
.0010000000474974513
-.01899999938905239
-.032999999821186066
-.027000000700354576
-.02500000037252903
-.014999999664723873
-.006000000052154064
-.008999999612569809
-.017999999225139618
-.029999999329447746
-.0430000014603138
-.039000000804662704
-.032999999821186066
-.03799999877810478
-.03400000184774399
-.03200000151991844
-.03099999949336052
-.019999999552965164
-.012000000104308128
-.008999999612569809
.0010000000474974513
-.004000000189989805
-.008999999612569809
-.023000000044703484
-.029999999329447746
-.02800000086426735
-.023000000044703484
-.013000000268220901
-.010999999940395355
-.006000000052154064
-.0020000000949949026
.004999999888241291
.009999999776482582
.024000000208616257
.03700000047683716
.041999999433755875
.039000000804662704
.03799999877810478
.03700000047683716
.019999999552965164
.017999999225139618
.029999999329447746
.04100000113248825
.061000000685453415
.07000000029802322
.06199999898672104
.06800000369548798
.06700000166893005
.05400000140070915
.0430000014603138
.026000000536441803
-.003000000026077032
-.027000000700354576
-.035999998450279236
-.03200000151991844
-.023000000044703484
-.026000000536441803
-.04399999976158142
-.05999999865889549
-.07000000029802322
-.06700000166893005
-.05400000140070915
-.04399999976158142
-.04600000008940697
-.04699999839067459
-.057999998331069946
-.0729999989271164
-.08799999952316284
-.10199999809265137
-.10999999940395355
-.11299999803304672
-.10199999809265137
-.0560000017285347
.0010000000474974513
.07199999690055847
.1550000011920929
.24899999797344208
.33899998664855957
.37700000405311584
.33799999952316284
.23800000548362732
.08100000023841858
-.10599999874830246
-.2529999911785126
-.33799999952316284
-.367000013589859
-.35199999809265137
-.3070000112056732
-.2370000034570694
-.15600000321865082
-.0949999988079071
-.05999999865889549
-.03999999910593033
-.035999998450279236
-.0430000014603138
-.04500000178813934
-.039000000804662704
-.02199999988079071
-.004000000189989805
.00800000037997961
.017999999225139618
.020999999716877937
.020999999716877937
.02500000037252903
.02500000037252903
.026000000536441803
.032999999821186066
.028999999165534973
.029999999329447746
.029999999329447746
.03200000151991844
.03700000047683716
.03200000151991844
.023000000044703484
.02800000086426735
.032999999821186066
.03500000014901161
.052000001072883606
.07000000029802322
.07999999821186066
.07900000363588333
.07900000363588333
.08299999684095383
.09799999743700027
.1120000034570694
.12200000137090683
.13500000536441803
.1469999998807907
.1469999998807907
.14800000190734863
.15600000321865082
.16300000250339508
.17000000178813934
.17399999499320984
.1720000058412552
.16500000655651093
.16500000655651093
.16899999976158142
.1770000010728836
.1809999942779541
.17800000309944153
.15700000524520874
.13500000536441803
.10199999809265137
.07199999690055847
.06400000303983688
.07500000298023224
.08399999886751175
.09300000220537186
.10199999809265137
.10999999940395355
.10199999809265137
.08399999886751175
.054999999701976776
.03700000047683716
.024000000208616257
.006000000052154064
-.003000000026077032
-.0010000000474974513
0.
0.
-.003000000026077032
-.013000000268220901
-.01899999938905239
-.03500000014901161
-.04800000041723251
-.04600000008940697
-.04100000113248825
-.032999999821186066
-.007000000216066837
-.008999999612569809
-.010999999940395355
-.014999999664723873
-.013000000268220901
.0010000000474974513
.01600000075995922
.014999999664723873
.008999999612569809
-.008999999612569809
-.03500000014901161
-.03500000014901161
-.03400000184774399
-.02500000037252903
-.012000000104308128
-.007000000216066837
-.00800000037997961
-.00800000037997961
-.004999999888241291
.010999999940395355
.01600000075995922
.02199999988079071
.024000000208616257
.01899999938905239
.017000000923871994,1666205554.301082
.01600000075995922
.014999999664723873
.02199999988079071
.02500000037252903
.027000000700354576
.032999999821186066
.04600000008940697
.05299999937415123
.05400000140070915
.0430000014603138
.02199999988079071
-.0010000000474974513
-.004000000189989805
.0010000000474974513
.004999999888241291
.00800000037997961
.0010000000474974513
-.008999999612569809
-.01899999938905239
-.039000000804662704
-.05700000002980232
-.06499999761581421
-.07199999690055847
-.07500000298023224
-.07900000363588333
-.0729999989271164
-.06800000369548798
-.06700000166893005
-.0689999982714653
-.07199999690055847
-.08299999684095383
-.10000000149011612
-.11500000208616257
-.12099999934434891
-.10400000214576721
-.06199999898672104
-.009999999776482582
.05000000074505806
.11900000274181366
.19599999487400055
.2800000011920929
.3409999907016754
.3440000116825104
.2639999985694885
.11599999666213989
-.07199999690055847
-.24899999797344208
-.367000013589859
-.40700000524520874
-.37599998712539673
-.31299999356269836
-.24899999797344208
-.1889999955892563
-.1420000046491623
-.11800000071525574
-.0989999994635582
-.07500000298023224
-.054999999701976776
-.04600000008940697
-.03999999910593033
-.0560000017285347
-.052000001072883606
-.04100000113248825
-.035999998450279236
-.03400000184774399
-.03099999949336052
-.028999999165534973
-.02500000037252903
-.013000000268220901
-.009999999776482582
-.003000000026077032
-.003000000026077032
-.003000000026077032
-.003000000026077032
.003000000026077032
.004999999888241291
.014999999664723873
.012000000104308128
.013000000268220901
.028999999165534973
.04699999839067459
.05400000140070915
.06300000101327896
.06499999761581421
.05900000035762787
.05400000140070915
.03799999877810478
.039000000804662704
.05900000035762787
.07599999755620956
.08500000089406967
.10199999809265137
.1120000034570694
.125
.1340000033378601
.14900000393390656
.1509999930858612
.15399999916553497
.1509999930858612
.1469999998807907
.14000000059604645
.1379999965429306
.1340000033378601
.13099999725818634
.1289999932050705
.12800000607967377
.12999999523162842
.12999999523162842
.12099999934434891
.1080000028014183
.10300000011920929
.09200000017881393
.07900000363588333
.061000000685453415
.05000000074505806
.03200000151991844
.01600000075995922
.00800000037997961
.004999999888241291
.003000000026077032
-.006000000052154064
-.017000000923871994
-.03999999910593033
-.05000000074505806
-.052000001072883606
-.041999999433755875
-.024000000208616257
-.01600000075995922
-.024000000208616257
-.03200000151991844
-.03999999910593033
-.04399999976158142
-.032999999821186066
-.014000000432133675
-.013000000268220901
-.017999999225139618
-.03200000151991844
-.0430000014603138
-.0430000014603138
-.032999999821186066
-.01600000075995922
-.007000000216066837
.004999999888241291
-.003000000026077032
-.010999999940395355
-.02199999988079071
-.03999999910593033
-.04600000008940697
-.0430000014603138
-.029999999329447746
-.013000000268220901
.013000000268220901
.024000000208616257
.024000000208616257
.012000000104308128
.00800000037997961
.014000000432133675
.017999999225139618
.023000000044703484
.017000000923871994
.00800000037997961
.009999999776482582
.00800000037997961
.01899999938905239
.039000000804662704
.04500000178813934
.05000000074505806
.04500000178813934
.039000000804662704
.02199999988079071
.008999999612569809
-.012000000104308128
-.02199999988079071
-.027000000700354576
-.035999998450279236
-.032999999821186066
-.02800000086426735
-.02500000037252903
-.03400000184774399
-.04699999839067459
-.06499999761581421
-.08100000023841858
-.09300000220537186
-.10499999672174454
-.10400000214576721
-.10700000077486038
-.1120000034570694
-.11100000143051147
-.10400000214576721
-.08799999952316284
-.08399999886751175
-.08900000154972076
-.08799999952316284
-.06499999761581421
-.028999999165534973
.03099999949336052
.0949999988079071
.1589999943971634
.23600000143051147
.2939999997615814
.3109999895095825
.26899999380111694
.15800000727176666
-.004000000189989805
-.17399999499320984
-.3059999942779541
-.37400001287460327
-.37700000405311584
-.34599998593330383
-.289000004529953
-.2290000021457672
-.1679999977350235
-.11999999731779099
-.10100000351667404
-.07999999821186066
-.07199999690055847
-.07100000232458115
-.0729999989271164
-.07599999755620956
-.08299999684095383
-.0729999989271164
-.05700000002980232
-.03999999910593033
-.013000000268220901
.003000000026077032
-.003000000026077032
-.017000000923871994
-.028999999165534973
-.04399999976158142
-.03999999910593033
-.020999999716877937
-.008999999612569809
.004999999888241291
.019999999552965164
.013000000268220901
.008999999612569809
.007000000216066837
-.003000000026077032
-.0010000000474974513
.010999999940395355
.02500000037252903
.04899999871850014
.07599999755620956
.08699999749660492
.0860000029206276
.07800000160932541
.07000000029802322
.06599999964237213
.07199999690055847
.08500000089406967
.0949999988079071
.10999999940395355
.11900000274181366
.11500000208616257
.11400000005960464
.11500000208616257
.11699999868869781
.1289999932050705
.14399999380111694
.14900000393390656
.14900000393390656
.13699999451637268
.11599999666213989
.10400000214576721
.11299999803304672
.11599999666213989
.11599999666213989
.12099999934434891
.10599999874830246
.0860000029206276
.0729999989271164
.05900000035762787
.061000000685453415
.05900000035762787
.041999999433755875
.019999999552965164
.010999999940395355
.003000000026077032
-.010999999940395355
-.01600000075995922
-.013000000268220901
-.01899999938905239
-.023000000044703484
-.023000000044703484
-.024000000208616257
-.027000000700354576
-.03400000184774399
-.04100000113248825
-.04100000113248825
-.039000000804662704
-.03999999910593033
-.04800000041723251
-.0560000017285347
-.06599999964237213
-.0689999982714653
-.057999998331069946
-.03799999877810478
-.02199999988079071
-.012000000104308128
-.019999999552965164,1666205555.3016365
-.04100000113248825
-.05000000074505806
-.07000000029802322
-.06199999898672104
-.050999999046325684
-.03799999877810478
-.024000000208616257
-.014000000432133675
-.010999999940395355
-.012000000104308128
-.008999999612569809
0.
.01600000075995922
.029999999329447746
.04100000113248825
.03099999949336052
.01600000075995922
.007000000216066837
.010999999940395355
.014000000432133675
.02800000086426735
.024000000208616257
.020999999716877937
.014999999664723873
0.
-.003000000026077032
.003000000026077032
.004999999888241291
0.
-.006000000052154064
-.017000000923871994
-.02500000037252903
-.03099999949336052
-.05299999937415123
-.0729999989271164
-.08799999952316284
-.11100000143051147
-.12600000202655792
-.12399999797344208
-.1080000028014183
-.09000000357627869
-.07599999755620956
-.0860000029206276
-.09399999678134918
-.10000000149011612
-.1120000034570694
-.12099999934434891
-.10499999672174454
-.08900000154972076
-.0689999982714653
-.03700000047683716
-.006000000052154064
.019999999552965164
.05999999865889549
.11500000208616257
.19499999284744263
.2750000059604645
.2939999997615814
.25
.14399999380111694
-.010999999940395355
-.18799999356269836
-.33399999141693115
-.41100001335144043
-.4189999997615814
-.3970000147819519
-.3409999907016754
-.2639999985694885
-.19599999487400055
-.1459999978542328
-.10899999737739563
-.08799999952316284
-.06700000166893005
-.06199999898672104
-.07000000029802322
-.07100000232458115
-.06800000369548798
-.06499999761581421
-.04899999871850014
-.024000000208616257
-.017999999225139618
-.009999999776482582
-.023000000044703484
-.027000000700354576
-.03200000151991844
-.039000000804662704
-.041999999433755875
-.03700000047683716
-.03799999877810478
-.04100000113248825
-.02500000037252903
-.017999999225139618
.0010000000474974513
.0010000000474974513
-.006000000052154064
-.008999999612569809
0.
.017999999225139618
.03999999910593033
.061000000685453415
.06599999964237213
.057999998331069946
.04500000178813934
.04100000113248825
.04500000178813934
.06300000101327896
.0820000022649765
.1080000028014183
.1340000033378601
.14499999582767487
.13600000739097595
.12300000339746475
.11500000208616257
.12099999934434891
.14300000667572021
.1589999943971634
.17100000381469727
.1589999943971634
.12999999523162842
.08799999952316284
.06599999964237213
.0689999982714653
.07599999755620956
.08399999886751175
.08100000023841858
.0729999989271164
.061000000685453415
.04800000041723251
.032999999821186066
.02500000037252903
.020999999716877937
.012000000104308128
.00800000037997961
.012000000104308128
.012000000104308128
.012000000104308128
-.004999999888241291
-.02500000037252903
-.04399999976158142
-.05700000002980232
-.06700000166893005
-.06599999964237213
-.05400000140070915
-.0430000014603138
-.041999999433755875
-.04699999839067459
-.04800000041723251
-.06300000101327896
-.0689999982714653
-.06800000369548798
-.06800000369548798
-.057999998331069946
-.050999999046325684
-.05000000074505806
-.0430000014603138
-.041999999433755875
-.052000001072883606
-.05999999865889549
-.06800000369548798
-.06800000369548798
-.06599999964237213
-.05900000035762787
-.04399999976158142
-.03700000047683716
-.039000000804662704
-.041999999433755875
-.04800000041723251
-.04500000178813934
-.012000000104308128
.014999999664723873
.039000000804662704
.039000000804662704
.014999999664723873
-.014000000432133675
-.02500000037252903
-.019999999552965164
.0010000000474974513
.02800000086426735
.029999999329447746
.026000000536441803
.017000000923871994
.017000000923871994
.023000000044703484
.02199999988079071
.014999999664723873
.006000000052154064
-.010999999940395355
-.02199999988079071
-.028999999165534973
-.03099999949336052
-.035999998450279236
-.04399999976158142
-.050999999046325684
-.05299999937415123
-.061000000685453415
-.07000000029802322
-.07900000363588333
-.08900000154972076
-.10400000214576721
-.10300000011920929
-.08900000154972076
-.06599999964237213
-.054999999701976776
-.061000000685453415
-.08299999684095383
-.11299999803304672
-.13500000536441803
-.12800000607967377
-.07699999958276749
-.014000000432133675
.05900000035762787
.10999999940395355
.17599999904632568
.24199999868869781
.28999999165534973
.3009999990463257
.24899999797344208
.12700000405311584
-.03200000151991844
-.18700000643730164
-.3140000104904175
-.3709999918937683
-.38999998569488525
-.375
-.3440000116825104
-.289000004529953
-.22300000488758087
-.1589999943971634
-.1120000034570694
-.08799999952316284
-.06499999761581421
-.04600000008940697
-.03700000047683716
-.02800000086426735
-.017999999225139618
-.020999999716877937
-.024000000208616257
-.01899999938905239
-.008999999612569809
0.
-.003000000026077032
-.010999999940395355
-.020999999716877937
-.03099999949336052
-.03200000151991844
-.024000000208616257
-.014000000432133675
.004000000189989805
.013000000268220901
.014000000432133675
.007000000216066837
.0010000000474974513
.009999999776482582
.023000000044703484
.04399999976158142
.05700000002980232
.04800000041723251
.05000000074505806
.050999999046325684
.061000000685453415
.08299999684095383
.10999999940395355
.1120000034570694
.11999999731779099
.11699999868869781
.10899999737739563
.11599999666213989
.11699999868869781
.12200000137090683
.125
.12399999797344208
.1289999932050705
.12999999523162842
.11800000071525574
.11299999803304672
.11400000005960464
.13099999725818634
.1420000046491623
.13699999451637268
.11900000274181366
.09600000083446503
.07199999690055847
.06199999898672104
.06700000166893005
.07800000160932541
.09000000357627869
.07900000363588333
.0689999982714653
.05700000002980232
.03200000151991844
.010999999940395355
-.014000000432133675
-.028999999165534973
-.035999998450279236
-.03500000014901161
-.028999999165534973
-.026000000536441803
-.024000000208616257
-.023000000044703484
-.029999999329447746,1666205556.28602
-.04600000008940697
-.06300000101327896
-.08799999952316284
-.10100000351667404
-.0949999988079071
-.07999999821186066
-.06400000303983688
-.05700000002980232
-.06700000166893005
-.08500000089406967
-.08799999952316284
-.07400000095367432
-.05000000074505806
-.029999999329447746
-.02500000037252903
-.03700000047683716
-.05299999937415123
-.06300000101327896
-.06700000166893005
-.05900000035762787
-.04600000008940697
-.03799999877810478
-.04100000113248825
-.04399999976158142
-.04399999976158142
-.03700000047683716
-.028999999165534973
-.017000000923871994
-.009999999776482582
-.014000000432133675
-.027000000700354576
-.04800000041723251
-.057999998331069946
-.04399999976158142
-.019999999552965164
.0010000000474974513
.02800000086426735
.04800000041723251
.04699999839067459
.041999999433755875
.026000000536441803
.004000000189989805
-.013000000268220901
-.029999999329447746
-.039000000804662704
-.03500000014901161
-.03700000047683716
-.050999999046325684
-.06700000166893005
-.07900000363588333
-.08100000023841858
-.07000000029802322
-.054999999701976776
-.03999999910593033
-.04699999839067459
-.06800000369548798
-.09399999678134918
-.11900000274181366
-.1289999932050705
-.13199999928474426
-.125
-.12600000202655792
-.13899999856948853
-.13899999856948853
-.13199999928474426
-.10199999809265137
-.04699999839067459
.00800000037997961
.07900000363588333
.15399999916553497
.21899999678134918
.2849999964237213
.3100000023841858
.257999986410141
.1550000011920929
-.00800000037997961
-.18199999630451202
-.32100000977516174
-.40299999713897705
-.4189999997615814
-.3889999985694885
-.3319999873638153
-.27000001072883606
-.20900000631809235
-.16099999845027924
-.11599999666213989
-.0820000022649765
-.0560000017285347
-.04899999871850014
-.05700000002980232
-.07100000232458115
-.08799999952316284
-.08699999749660492
-.07999999821186066
-.05700000002980232
-.039000000804662704
-.05900000035762787
-.0689999982714653
-.06400000303983688
-.0560000017285347
-.03700000047683716
-.01600000075995922
-.012000000104308128
-.0020000000949949026
.0010000000474974513
-.006000000052154064
.0010000000474974513
-.004000000189989805
-.014000000432133675
-.01600000075995922
-.014999999664723873
.0010000000474974513
.01600000075995922
.01899999938905239
.014000000432133675
.010999999940395355
.00800000037997961
.01899999938905239
.03099999949336052
.035999998450279236
.0430000014603138
.050999999046325684
.054999999701976776
.052000001072883606
.05900000035762787
.08100000023841858
.11100000143051147
.13300000131130219
.14499999582767487
.12800000607967377
.11299999803304672
.09600000083446503
.09300000220537186
.10499999672174454
.11800000071525574
.11299999803304672
.09799999743700027
.08399999886751175
.0689999982714653
.07000000029802322
.06700000166893005
.04800000041723251
.032999999821186066
.010999999940395355
-.013000000268220901
-.035999998450279236
-.05299999937415123
-.06300000101327896
-.05700000002980232
-.04399999976158142
-.03099999949336052
-.02500000037252903
-.027000000700354576
-.03700000047683716
-.05700000002980232
-.061000000685453415
-.06199999898672104
-.061000000685453415
-.05400000140070915
-.054999999701976776
-.06400000303983688
-.05900000035762787
-.05900000035762787
-.06300000101327896
-.06499999761581421
-.07100000232458115
-.0729999989271164
-.07900000363588333
-.09399999678134918
-.10100000351667404
-.10199999809265137
-.0989999994635582
-.08100000023841858
-.07199999690055847
-.054999999701976776
-.04800000041723251
-.057999998331069946
-.06700000166893005
-.07500000298023224
-.07699999958276749
-.07199999690055847
-.06199999898672104
-.0560000017285347
-.0430000014603138
-.028999999165534973
-.01899999938905239
-.013000000268220901
-.014000000432133675
-.008999999612569809
-.00800000037997961
-.004999999888241291
.007000000216066837
.024000000208616257
.029999999329447746
.026000000536441803
.014999999664723873
-.0010000000474974513
-.017000000923871994
-.019999999552965164
-.024000000208616257
-.023000000044703484
-.029999999329447746
-.05000000074505806
-.05700000002980232
-.07000000029802322
-.07599999755620956
-.08399999886751175
-.08799999952316284
-.09700000286102295
-.10199999809265137
-.1120000034570694
-.10999999940395355
-.09799999743700027
-.10000000149011612
-.0989999994635582
-.10400000214576721
-.10300000011920929
-.10400000214576721
-.12300000339746475
-.1340000033378601
-.1420000046491623
-.13699999451637268
-.10100000351667404
-.05000000074505806
.007000000216066837
.05999999865889549
.10899999737739563
.17299999296665192
.257999986410141
.3240000009536743
.3319999873638153
.257999986410141
.10499999672174454
-.0860000029206276
-.25999999046325684
-.36899998784065247
-.3959999978542328
-.3799999952316284
-.3330000042915344
-.2800000011920929
-.22499999403953552
-.17900000512599945
-.14399999380111694
-.1080000028014183
-.07100000232458115
-.04399999976158142
-.03400000184774399
-.04100000113248825
-.05900000035762787
-.07000000029802322
-.07500000298023224
-.0689999982714653
-.052000001072883606
-.03999999910593033
-.03799999877810478
-.035999998450279236
-.03200000151991844
-.020999999716877937
-.004999999888241291
.0010000000474974513
0.
-.004000000189989805
-.010999999940395355
-.004000000189989805
.006000000052154064
.014000000432133675
.01600000075995922
.017000000923871994
.00800000037997961
-.0010000000474974513
.003000000026077032
.008999999612569809
.027000000700354576
.04100000113248825
.05400000140070915
.05700000002980232
.0689999982714653
.06700000166893005
.07000000029802322
.09099999815225601
.11100000143051147
.12800000607967377
.13500000536441803
.13099999725818634
.11500000208616257
.11500000208616257
.11500000208616257
.12399999797344208
.13300000131130219
.12999999523162842
.12099999934434891
.10999999940395355
.09700000286102295
.09399999678134918
.10000000149011612
.09600000083446503
.08299999684095383
.06499999761581421
.05400000140070915
.052000001072883606,1666205557.3016145
.054999999701976776
.05900000035762787
.057999998331069946
.04399999976158142
.009999999776482582
-.014999999664723873
-.039000000804662704
-.04800000041723251
-.05400000140070915
-.06800000369548798
-.07000000029802322
-.07500000298023224
-.07400000095367432
-.06800000369548798
-.05400000140070915
-.05299999937415123
-.04899999871850014
-.0430000014603138
-.05700000002980232
-.07500000298023224
-.0949999988079071
-.09300000220537186
-.08500000089406967
-.06499999761581421
-.04800000041723251
-.0430000014603138
-.03799999877810478
-.050999999046325684
-.050999999046325684
-.04399999976158142
-.035999998450279236
-.04100000113248825
-.05400000140070915
-.057999998331069946
-.05999999865889549
-.0560000017285347
-.052000001072883606
-.04500000178813934
-.054999999701976776
-.057999998331069946
-.05900000035762787
-.05400000140070915
-.03500000014901161
-.024000000208616257
-.014000000432133675
-.017999999225139618
-.01899999938905239
-.03799999877810478
-.03700000047683716
-.032999999821186066
-.013000000268220901
.010999999940395355
.03099999949336052
.039000000804662704
.03799999877810478
.028999999165534973
0.
-.024000000208616257
-.04399999976158142
-.05999999865889549
-.06499999761581421
-.054999999701976776
-.054999999701976776
-.05700000002980232
-.06400000303983688
-.0820000022649765
-.10100000351667404
-.1120000034570694
-.12600000202655792
-.13199999928474426
-.12099999934434891
-.11299999803304672
-.12399999797344208
-.12999999523162842
-.14499999582767487
-.16099999845027924
-.164000004529953
-.15199999511241913
-.13500000536441803
-.12300000339746475
-.1080000028014183
-.09099999815225601
-.05000000074505806
0.
.06700000166893005
.12999999523162842
.21299999952316284
.27799999713897705
.28999999165534973
.2460000067949295
.13199999928474426
-.027000000700354576
-.2029999941587448
-.3409999907016754
-.42100000381469727
-.4309999942779541
-.39899998903274536
-.34200000762939453
-.27900001406669617
-.2199999988079071
-.1599999964237213
-.12300000339746475
-.09799999743700027
-.07900000363588333
-.06199999898672104
-.050999999046325684
-.052000001072883606
-.050999999046325684
-.06400000303983688
-.07599999755620956
-.0820000022649765
-.08699999749660492
-.07800000160932541
-.054999999701976776
-.03700000047683716
-.03099999949336052
-.026000000536441803
-.03200000151991844
-.03799999877810478
-.03700000047683716
-.0430000014603138
-.04600000008940697
-.041999999433755875
-.03400000184774399
-.024000000208616257
-.014000000432133675
-.009999999776482582
.008999999612569809
.03400000184774399
.052000001072883606
.061000000685453415
.05700000002980232
.039000000804662704
.02800000086426735
.026000000536441803
.032999999821186066
.06599999964237213
.0949999988079071
.10999999940395355
.12200000137090683
.13300000131130219
.12700000405311584
.12800000607967377
.11400000005960464
.10000000149011612
.09300000220537186
.08699999749660492
.09099999815225601
.09799999743700027
.10300000011920929
.10599999874830246
.10999999940395355
.10899999737739563
.11900000274181366
.11100000143051147
.09000000357627869
.07199999690055847
.041999999433755875
.02500000037252903
.02199999988079071
.017999999225139618
.023000000044703484
.02500000037252903
.017999999225139618
.012000000104308128
.004000000189989805
-.008999999612569809
-.024000000208616257
-.041999999433755875
-.06199999898672104
-.06700000166893005
-.07500000298023224
-.07900000363588333
-.0729999989271164
-.06400000303983688
-.061000000685453415
-.06300000101327896
-.061000000685453415
-.06400000303983688
-.057999998331069946
-.05999999865889549
-.06400000303983688
-.0689999982714653
-.07000000029802322
-.0729999989271164
-.061000000685453415
-.04100000113248825
-.03799999877810478
-.039000000804662704
-.0560000017285347
-.06400000303983688
-.0689999982714653
-.06199999898672104
-.057999998331069946
-.04699999839067459
-.0430000014603138
-.03400000184774399
-.02199999988079071
-.012000000104308128
-.014999999664723873
-.012000000104308128
-.010999999940395355
-.02199999988079071
-.02199999988079071
-.020999999716877937
-.013000000268220901
.0010000000474974513
.02199999988079071
.029999999329447746
.052000001072883606
.05400000140070915
.04100000113248825
.03799999877810478
.024000000208616257
.004000000189989805
-.013000000268220901
-.023000000044703484
-.03200000151991844
-.03200000151991844
-.029999999329447746
-.026000000536441803
-.02199999988079071
-.028999999165534973
-.03799999877810478
-.04899999871850014
-.0729999989271164
-.10400000214576721
-.125
-.14399999380111694
-.13500000536441803
-.11800000071525574
-.0949999988079071
-.07400000095367432
-.07100000232458115
-.09700000286102295
-.11100000143051147
-.10499999672174454
-.10000000149011612
-.05299999937415123
-.006000000052154064
.04100000113248825
.09300000220537186
.1599999964237213
.23199999332427979
.28999999165534973
.30000001192092896
.23999999463558197
.12300000339746475
-.04100000113248825
-.20800000429153442
-.3370000123977661
-.3959999978542328
-.4000000059604645
-.36800000071525574
-.3009999990463257
-.22599999606609344
-.1679999977350235
-.12700000405311584
-.10899999737739563
-.09799999743700027
-.07699999958276749
-.07199999690055847
-.06599999964237213
-.04600000008940697
-.041999999433755875
-.032999999821186066
-.014999999664723873
-.004999999888241291
-.007000000216066837
-.009999999776482582
-.019999999552965164
-.027000000700354576
-.019999999552965164
-.00800000037997961
.00800000037997961
.027000000700354576
.03799999877810478
.026000000536441803
.020999999716877937
.014999999664723873
-.0010000000474974513
-.01600000075995922
-.009999999776482582
.0010000000474974513
.017000000923871994
.03799999877810478
.05299999937415123
.06300000101327896
.06499999761581421
.07000000029802322
.07199999690055847
.08399999886751175
.09300000220537186
.10899999737739563
.12399999797344208
.14100000262260437
.1550000011920929
.164000004529953
.1720000058412552
.17100000381469727,1666205558.3018227
.1589999943971634
.14499999582767487
.13500000536441803
.12600000202655792
.1080000028014183
.1120000034570694
.11699999868869781
.12399999797344208
.13899999856948853
.1420000046491623
.1340000033378601
.12600000202655792
.11599999666213989
.0949999988079071
.09700000286102295
.07900000363588333
.0689999982714653
.04899999871850014
.026000000536441803
.014999999664723873
.017000000923871994
.006000000052154064
-.006000000052154064
-.017000000923871994
-.03999999910593033
-.050999999046325684
-.05400000140070915
-.04899999871850014
-.0430000014603138
-.0430000014603138
-.05000000074505806
-.0560000017285347
-.04800000041723251
-.04100000113248825
-.03500000014901161
-.01600000075995922
-.012000000104308128
-.019999999552965164
-.01899999938905239
-.019999999552965164
-.02199999988079071
-.019999999552965164
-.03400000184774399
-.04399999976158142
-.04600000008940697
-.0560000017285347
-.050999999046325684
-.035999998450279236
-.01600000075995922
-.004000000189989805
0.
.003000000026077032
.006000000052154064
-.003000000026077032
-.012000000104308128
-.007000000216066837
-.006000000052154064
.004000000189989805
.017000000923871994
.041999999433755875
.06199999898672104
.0729999989271164
.07199999690055847
.0689999982714653
.06800000369548798
.05900000035762787
.052000001072883606
.04899999871850014
.04899999871850014
.039000000804662704
.02800000086426735
.009999999776482582
-.010999999940395355
-.026000000536441803
-.029999999329447746
-.02500000037252903
-.019999999552965164
-.029999999329447746
-.04100000113248825
-.057999998331069946
-.07800000160932541
-.07400000095367432
-.06700000166893005
-.05900000035762787
-.05999999865889549
-.06800000369548798
-.07900000363588333
-.07699999958276749
-.07699999958276749
-.07599999755620956
-.07500000298023224
-.0820000022649765
-.07999999821186066
-.06599999964237213
-.028999999165534973
.026000000536441803
.07800000160932541
.12999999523162842
.19900000095367432
.2669999897480011
.296999990940094
.28200000524520874
.20800000429153442
.07900000363588333
-.07500000298023224
-.21699999272823334
-.328000009059906
-.3659999966621399
-.3610000014305115
-.3370000123977661
-.27399998903274536
-.2070000022649765
-.15000000596046448
-.11500000208616257
-.09000000357627869
-.07699999958276749
-.04500000178813934
-.026000000536441803
-.01600000075995922
0.
.004999999888241291
0.
-.004000000189989805
-.008999999612569809
-.017999999225139618
-.02199999988079071
-.02800000086426735
-.020999999716877937
-.004000000189989805
.004000000189989805
.013000000268220901
.024000000208616257
.03799999877810478
.04699999839067459
.04600000008940697
.04699999839067459
.0430000014603138
.032999999821186066
.03200000151991844
.0430000014603138
.05400000140070915
.0729999989271164
.07599999755620956
.07999999821186066
.09300000220537186
.10100000351667404
.11299999803304672
.12200000137090683
.11999999731779099
.125
.11999999731779099
.10599999874830246
.11599999666213989
.1340000033378601
.14499999582767487
.17299999296665192
.18400000035762787
.18400000035762787
.18700000643730164
.1809999942779541
.17900000512599945
.18400000035762787
.17800000309944153
.16300000250339508
.15399999916553497
.14499999582767487
.13899999856948853
.12600000202655792
.11900000274181366
.10599999874830246
.0860000029206276
.0729999989271164
.0689999982714653
.061000000685453415
.052000001072883606
.04500000178813934
.027000000700354576
.01899999938905239
.014000000432133675
0.
-.007000000216066837
-.008999999612569809
-.00800000037997961
-.008999999612569809
.007000000216066837
.014999999664723873
.026000000536441803
.020999999716877937
.003000000026077032
-.017000000923871994
-.03400000184774399
-.04500000178813934
-.057999998331069946
-.054999999701976776
-.0430000014603138
-.032999999821186066
-.019999999552965164
-.006000000052154064
-.007000000216066837
-.017000000923871994
-.03500000014901161
-.039000000804662704
-.041999999433755875
-.04100000113248825
-.03799999877810478
-.03200000151991844
-.01899999938905239
.003000000026077032
.026000000536441803
.04500000178813934
.05700000002980232
.05000000074505806
.03400000184774399
.03400000184774399
.03700000047683716
.05000000074505806
.06199999898672104
.0729999989271164
.07500000298023224
.07699999958276749
.0729999989271164
.061000000685453415
.05900000035762787
.052000001072883606
.035999998450279236
.019999999552965164
.00800000037997961
-.007000000216066837
-.009999999776482582
-.008999999612569809
-.009999999776482582
-.007000000216066837
-.004000000189989805
-.007000000216066837
-.003000000026077032
-.004000000189989805
-.024000000208616257
-.03500000014901161
-.04600000008940697
-.05700000002980232
-.06400000303983688
-.05999999865889549
-.05400000140070915
-.04699999839067459
-.04600000008940697
-.05700000002980232
-.07100000232458115
-.09200000017881393
-.1080000028014183
-.0949999988079071
-.052000001072883606
.013000000268220901
.07800000160932541
.13099999725818634
.1889999955892563
.2630000114440918
.32100000977516174
.328000009059906
.27000001072883606
.14800000190734863
-.029999999329447746
-.20000000298023224
-.3230000138282776
-.37700000405311584
-.3569999933242798
-.3089999854564667
-.2549999952316284
-.19300000369548798
-.1379999965429306
-.11500000208616257
-.09200000017881393
-.06700000166893005
-.035999998450279236
-.007000000216066837
.007000000216066837
.004999999888241291
-.006000000052154064
-.017999999225139618
-.017999999225139618
-.00800000037997961
.0020000000949949026
.008999999612569809
0.
-.014999999664723873
-.013000000268220901
.006000000052154064
.026000000536441803
.052000001072883606
.052000001072883606
.04399999976158142
.02800000086426735
.004999999888241291
.0020000000949949026
.010999999940395355
.019999999552965164
.032999999821186066
.052000001072883606
.07000000029802322
.10000000149011612
.10899999737739563,1666205559.286294
.10599999874830246
.10499999672174454
.09399999678134918
.10199999809265137
.12300000339746475
.14300000667572021
.1589999943971634
.16899999976158142
.17399999499320984
.1720000058412552
.17399999499320984
.16899999976158142
.16200000047683716
.1599999964237213
.16300000250339508
.16599999368190765
.17800000309944153
.18700000643730164
.1770000010728836
.164000004529953
.1379999965429306
.125
.11299999803304672
.1080000028014183
.10999999940395355
.11699999868869781
.125
.12300000339746475
.10899999737739563
.08900000154972076
.07199999690055847
.039000000804662704
.023000000044703484
.02199999988079071
.02199999988079071
.02199999988079071
.026000000536441803
.007000000216066837
-.006000000052154064
-.020999999716877937
-.03099999949336052
-.02500000037252903
-.017000000923871994
-.01600000075995922
-.013000000268220901
-.009999999776482582
-.014000000432133675
-.028999999165534973
-.03999999910593033
-.0430000014603138
-.04500000178813934
-.039000000804662704
-.014999999664723873
0.
.01600000075995922
.01899999938905239
.0020000000949949026
-.003000000026077032
-.009999999776482582
-.012000000104308128
-.0010000000474974513
.01600000075995922
.020999999716877937
.02800000086426735
.026000000536441803
.024000000208616257
.017999999225139618
.024000000208616257
.03400000184774399
.05000000074505806
.06499999761581421
.05999999865889549
.05299999937415123
.041999999433755875
.029999999329447746
.02800000086426735
.04500000178813934
.05299999937415123
.07000000029802322
.08699999749660492
.08299999684095383
.0820000022649765
.07000000029802322
.05000000074505806
.03500000014901161
.02500000037252903
.024000000208616257
.028999999165534973
.027000000700354576
.02199999988079071
.010999999940395355
-.006000000052154064
-.012000000104308128
-.014000000432133675
-.014999999664723873
-.019999999552965164
-.029999999329447746
-.04100000113248825
-.0430000014603138
-.03999999910593033
-.03999999910593033
-.03700000047683716
-.032999999821186066
-.03200000151991844
-.050999999046325684
-.0689999982714653
-.06300000101327896
-.03799999877810478
0.
.05400000140070915
.10700000077486038
.16500000655651093
.23600000143051147
.3019999861717224
.3529999852180481
.3720000088214874
.3089999854564667
.17000000178813934
-.02199999988079071
-.20200000703334808
-.32100000977516174
-.35600000619888306
-.3240000009536743
-.24899999797344208
-.1720000058412552
-.10899999737739563
-.061000000685453415
-.04800000041723251
-.03400000184774399
-.019999999552965164
-.00800000037997961
.0010000000474974513
.013000000268220901
.008999999612569809
.0020000000949949026
.00800000037997961
0.
-.0010000000474974513
.00800000037997961
.017999999225139618
.029999999329447746
.035999998450279236
.035999998450279236
.03799999877810478
.04500000178813934
.035999998450279236
.03799999877810478
.050999999046325684
.06700000166893005
.0860000029206276
.09700000286102295
.10199999809265137
.10300000011920929
.09300000220537186
.07400000095367432
.07000000029802322
.07599999755620956
.09000000357627869
.10999999940395355
.12700000405311584
.14300000667572021
.1599999964237213
.16699999570846558
.15399999916553497
.1379999965429306
.1340000033378601
.12600000202655792
.12999999523162842
.15299999713897705
.1770000010728836
.20000000298023224
.21799999475479126
.21199999749660492
.21299999952316284
.20900000631809235
.19599999487400055
.1889999955892563
.18400000035762787
.17399999499320984
.16699999570846558
.16099999845027924
.14900000393390656
.14100000262260437
.12999999523162842
.11999999731779099
.11699999868869781
.1120000034570694
.10000000149011612
.08299999684095383
.06599999964237213
.03999999910593033
.027000000700354576
.026000000536441803
.03400000184774399
.03099999949336052
.010999999940395355
-.00800000037997961
-.026000000536441803
-.027000000700354576
-.013000000268220901
.004000000189989805
.006000000052154064
.004999999888241291
-.02199999988079071
-.03400000184774399
-.02199999988079071
0.
.02800000086426735
.032999999821186066
.027000000700354576
.004000000189989805
-.01600000075995922
-.024000000208616257
-.007000000216066837
-.004000000189989805
.007000000216066837
.014999999664723873
-.0020000000949949026
0.
-.0020000000949949026
0.
0.
.0010000000474974513
-.006000000052154064
-.0010000000474974513
.014000000432133675
.03200000151991844
.04800000041723251
.06700000166893005
.07599999755620956
.06599999964237213
.05999999865889549
.05400000140070915
.05000000074505806
.057999998331069946
.07599999755620956
.0860000029206276
.09799999743700027
.09799999743700027
.09099999815225601
.08399999886751175
.07199999690055847
.061000000685453415
.04899999871850014
.035999998450279236
.013000000268220901
-.0010000000474974513
-.00800000037997961
-.014999999664723873
-.019999999552965164
-.024000000208616257
-.020999999716877937
-.026000000536441803
-.02500000037252903
-.03099999949336052
-.03400000184774399
-.035999998450279236
-.052000001072883606
-.06800000369548798
-.06800000369548798
-.06400000303983688
-.05900000035762787
-.06300000101327896
-.07699999958276749
-.0820000022649765
-.07000000029802322
-.035999998450279236
.02199999988079071
.07599999755620956
.125
.19599999487400055
.2630000114440918
.3179999887943268
.32199999690055847
.2680000066757202
.14300000667572021
-.01600000075995922
-.16300000250339508
-.27399998903274536
-.3230000138282776
-.3230000138282776
-.3070000112056732
-.2540000081062317
-.18199999630451202
-.12600000202655792
-.08299999684095383
-.0560000017285347
-.050999999046325684
-.04699999839067459
-.039000000804662704
-.029999999329447746
-.017999999225139618
-.020999999716877937
-.02199999988079071
-.017999999225139618
-.012000000104308128
-.006000000052154064
.0010000000474974513
.004999999888241291
.0020000000949949026,1666205560.3019512
0.
-.0010000000474974513
.010999999940395355
.026000000536441803
.03200000151991844
.029999999329447746
.029999999329447746
.03400000184774399
.03400000184774399
.04399999976158142
.05400000140070915
.0689999982714653
.0729999989271164
.0689999982714653
.06400000303983688
.05400000140070915
.05299999937415123
.05400000140070915
.06300000101327896
.07900000363588333
.09799999743700027
.11500000208616257
.13300000131130219
.12999999523162842
.12800000607967377
.12999999523162842
.13600000739097595
.14100000262260437
.14399999380111694
.15399999916553497
.16699999570846558
.17100000381469727
.17399999499320984
.18199999630451202
.1899999976158142
.18000000715255737
.15600000321865082
.125
.11800000071525574
.12399999797344208
.1289999932050705
.13199999928474426
.12099999934434891
.10899999737739563
.07500000298023224
.054999999701976776
.035999998450279236
.028999999165534973
.019999999552965164
.009999999776482582
0.
.0010000000474974513
0.
-.004000000189989805
-.008999999612569809
-.00800000037997961
-.004000000189989805
-.0010000000474974513
-.0020000000949949026
-.007000000216066837
-.013000000268220901
-.02199999988079071
-.02500000037252903
-.019999999552965164
-.019999999552965164
-.019999999552965164
-.02500000037252903
-.03099999949336052
-.023000000044703484
-.020999999716877937
-.017999999225139618
-.01600000075995922
-.013000000268220901
-.0010000000474974513
.007000000216066837
.009999999776482582
.004999999888241291
-.0020000000949949026
-.017000000923871994
-.027000000700354576
-.03400000184774399
-.03200000151991844
-.014999999664723873
-.0020000000949949026
.014000000432133675
.027000000700354576
.04500000178813934
.05000000074505806
.03799999877810478
.02500000037252903
.020999999716877937
.006000000052154064
.004000000189989805
.02500000037252903
.04600000008940697
.06800000369548798
.07699999958276749
.050999999046325684
.03500000014901161
.027000000700354576
.013000000268220901
.019999999552965164
.03200000151991844
.029999999329447746
.013000000268220901
-.00800000037997961
-.03500000014901161
-.05299999937415123
-.06499999761581421
-.06599999964237213
-.06400000303983688
-.06300000101327896
-.061000000685453415
-.06499999761581421
-.061000000685453415
-.06400000303983688
-.06599999964237213
-.057999998331069946
-.0560000017285347
-.06199999898672104
-.07500000298023224
-.10199999809265137
-.11100000143051147
-.08799999952316284
-.04699999839067459
.026000000536441803
.09600000083446503
.1589999943971634
.23100000619888306
.28999999165534973
.3109999895095825
.31299999356269836
.23800000548362732
.1080000028014183
-.05700000002980232
-.2199999988079071
-.33000001311302185
-.37700000405311584
-.3720000088214874
-.3240000009536743
-.24899999797344208
-.1850000023841858
-.11900000274181366
-.09000000357627869
-.07400000095367432
-.054999999701976776
-.050999999046325684
-.03999999910593033
-.02500000037252903
-.026000000536441803
-.01899999938905239
-.004000000189989805
.0020000000949949026
.003000000026077032
0.
0.
.013000000268220901
.020999999716877937
.029999999329447746
.04399999976158142
.04100000113248825
.035999998450279236
.02199999988079071
.01600000075995922
.023000000044703484
.041999999433755875
.04600000008940697
.0560000017285347
.06800000369548798
.07000000029802322
.07100000232458115
.07100000232458115
.07599999755620956
.0820000022649765
.10000000149011612
.10300000011920929
.10899999737739563
.1080000028014183
.09700000286102295
.09799999743700027
.10599999874830246
.12700000405311584
.16099999845027924
.19699999690055847
.21199999749660492
.22300000488758087
.2199999988079071
.2029999941587448
.19699999690055847
.17499999701976776
.164000004529953
.1589999943971634
.15800000727176666
.15700000524520874
.15399999916553497
.15399999916553497
.1509999930858612
.14900000393390656
.1459999978542328
.14300000667572021
.11999999731779099
.09600000083446503
.0729999989271164
.04500000178813934
.02800000086426735
.006000000052154064
0.
-.004000000189989805
-.004999999888241291
-.0020000000949949026
.004000000189989805
.004000000189989805
0.
-.006000000052154064
-.009999999776482582
-.004000000189989805
-.007000000216066837
-.006000000052154064
-.012000000104308128
-.01600000075995922
-.017999999225139618
-.019999999552965164
-.02199999988079071
-.014999999664723873
-.012000000104308128
-.014999999664723873
-.01899999938905239
-.035999998450279236
-.03400000184774399
-.02800000086426735
-.008999999612569809
.017000000923871994
.028999999165534973
.029999999329447746
.014999999664723873
-.006000000052154064
-.017000000923871994
-.012000000104308128
-.007000000216066837
.007000000216066837
.01899999938905239
.026000000536441803
.03799999877810478
.04399999976158142
.041999999433755875
.03999999910593033
.03700000047683716
.03500000014901161
.03400000184774399
.03700000047683716
.057999998331069946
.05299999937415123
.054999999701976776
.057999998331069946
.061000000685453415
.061000000685453415
.0729999989271164
.07900000363588333
.0820000022649765
.07900000363588333
.03700000047683716
.008999999612569809
-.017000000923871994
-.03799999877810478
-.04800000041723251
-.04100000113248825
-.03999999910593033
-.03700000047683716
-.050999999046325684
-.05000000074505806
-.04399999976158142
-.05000000074505806
-.0689999982714653
-.061000000685453415
-.05000000074505806
-.03999999910593033
-.020999999716877937
-.027000000700354576
-.0430000014603138
-.0689999982714653
-.09300000220537186
-.08299999684095383
-.026000000536441803
.029999999329447746
.07599999755620956
.13699999451637268
.20600000023841858
.29499998688697815
.3619999885559082
.3569999933242798
.289000004529953
.14000000059604645
-.04500000178813934
-.22300000488758087
-.34200000762939453
-.39899998903274536
-.3779999911785126
-.32899999618530273
-.27399998903274536
-.19900000095367432,1666205561.2862952
-.14100000262260437
-.10400000214576721
-.07500000298023224
-.04699999839067459
-.026000000536441803
-.0020000000949949026
0.
-.013000000268220901
-.004999999888241291
0.
.0020000000949949026
.010999999940395355
.020999999716877937
.02199999988079071
.02800000086426735
.023000000044703484
.007000000216066837
.004999999888241291
.006000000052154064
0.
.012000000104308128
.013000000268220901
.01600000075995922
.027000000700354576
.039000000804662704
.04800000041723251
.06400000303983688
.07400000095367432
.06599999964237213
.06800000369548798
.061000000685453415
.06700000166893005
.0729999989271164
.09300000220537186
.1080000028014183
.125
.14000000059604645
.13300000131130219
.12399999797344208
.11699999868869781
.11500000208616257
.12700000405311584
.1459999978542328
.15399999916553497
.15299999713897705
.15199999511241913
.15399999916553497
.15800000727176666
.15399999916553497
.1509999930858612
.15199999511241913
.15199999511241913
.1509999930858612
.14399999380111694
.13600000739097595
.12999999523162842
.11299999803304672
.0949999988079071
.09300000220537186
.09300000220537186
.09300000220537186
.0820000022649765
.07100000232458115
.0729999989271164
.0729999989271164
.054999999701976776
.035999998450279236
.017999999225139618
0.
-.012000000104308128
-.020999999716877937
-.023000000044703484
-.023000000044703484
-.027000000700354576
-.03099999949336052
-.02199999988079071
-.00800000037997961
-.003000000026077032
-.012000000104308128
-.032999999821186066
-.04699999839067459
-.04100000113248825
-.03700000047683716
-.026000000536441803
-.017000000923871994
-.012000000104308128
-.03099999949336052
-.03500000014901161
-.03400000184774399
-.024000000208616257
.0020000000949949026
.013000000268220901
.004999999888241291
.0010000000474974513
-.010999999940395355
-.0430000014603138
-.035999998450279236
-.02800000086426735
-.003000000026077032
.028999999165534973
.04399999976158142
.0430000014603138
.04399999976158142
.032999999821186066
.02199999988079071
.019999999552965164
.01600000075995922
.02199999988079071
.01899999938905239
.01899999938905239
.019999999552965164
.017999999225139618
.020999999716877937
.03099999949336052
.04500000178813934
.0560000017285347
.057999998331069946
.0430000014603138
.017999999225139618
-.007000000216066837
-.02199999988079071
-.014999999664723873
-.01600000075995922
-.019999999552965164
-.03099999949336052
-.052000001072883606
-.06800000369548798
-.08500000089406967
-.09300000220537186
-.09099999815225601
-.0820000022649765
-.08299999684095383
-.07800000160932541
-.09399999678134918
-.11500000208616257
-.125
-.13600000739097595
-.12200000137090683
-.09300000220537186
-.05900000035762787
-.013000000268220901
.03099999949336052
.05900000035762787
.10599999874830246
.1679999977350235
.24400000274181366
.3089999854564667
.32899999618530273
.28200000524520874
.1550000011920929
-.020999999716877937
-.2199999988079071
-.3720000088214874
-.4429999887943268
-.43799999356269836
-.39100000262260437
-.3149999976158142
-.23399999737739563
-.17299999296665192
-.13099999725818634
-.10199999809265137
-.06199999898672104
-.035999998450279236
-.02500000037252903
-.024000000208616257
-.03500000014901161
-.0430000014603138
-.04100000113248825
-.029999999329447746
-.017999999225139618
-.008999999612569809
-.017999999225139618
-.02800000086426735
-.027000000700354576
-.026000000536441803
-.017999999225139618
.003000000026077032
.01899999938905239
.010999999940395355
.006000000052154064
-.004999999888241291
-.01899999938905239
-.017999999225139618
-.017999999225139618
-.017000000923871994
.004000000189989805
.014000000432133675
.01899999938905239
.03999999910593033
.05000000074505806
.05299999937415123
.061000000685453415
.06700000166893005
.07400000095367432
.09600000083446503
.1120000034570694
.12600000202655792
.13600000739097595
.1289999932050705
.12399999797344208
.11699999868869781
.12800000607967377
.14499999582767487
.18299999833106995
.20399999618530273
.1940000057220459
.17299999296665192
.14100000262260437
.11100000143051147
.09399999678134918
.08799999952316284
.09200000017881393
.10899999737739563
.10999999940395355
.10499999672174454
.09399999678134918
.08799999952316284
.06499999761581421
.039000000804662704
.017000000923871994
0.
-.00800000037997961
-.010999999940395355
-.012000000104308128
-.006000000052154064
-.003000000026077032
-.014000000432133675
-.03200000151991844
-.041999999433755875
-.052000001072883606
-.05900000035762787
-.07100000232458115
-.07199999690055847
-.06199999898672104
-.05999999865889549
-.05700000002980232
-.052000001072883606
-.03799999877810478
-.03200000151991844
-.03200000151991844
-.035999998450279236
-.050999999046325684
-.0729999989271164
-.09000000357627869
-.09700000286102295
-.08799999952316284
-.06700000166893005
-.061000000685453415
-.05400000140070915
-.05000000074505806
-.04899999871850014
-.04500000178813934
-.02800000086426735
-.023000000044703484
-.02500000037252903
-.02500000037252903
-.026000000536441803
-.03500000014901161
-.04600000008940697
-.054999999701976776
-.05900000035762787
-.035999998450279236
-.009999999776482582
.026000000536441803
.05900000035762787
.06199999898672104
.04100000113248825
.01899999938905239
-.004999999888241291
-.008999999612569809
-.013000000268220901
-.009999999776482582
-.0020000000949949026
-.0020000000949949026
-.013000000268220901
-.017999999225139618
-.02199999988079071
-.03500000014901161
-.03999999910593033
-.04800000041723251
-.057999998331069946
-.06599999964237213
-.07000000029802322
-.08299999684095383
-.09099999815225601
-.08699999749660492
-.08699999749660492
-.08500000089406967
-.0860000029206276
-.0989999994635582
-.10199999809265137
-.11299999803304672
-.11400000005960464
-.11100000143051147
-.11500000208616257
-.12200000137090683
-.12300000339746475
-.1120000034570694
-.07400000095367432
-.014000000432133675,1666205562.2862675
.02500000037252903
.07000000029802322
.13099999725818634
.20200000703334808
.27000001072883606
.3019999861717224
.26100000739097595
.13300000131130219
-.04699999839067459
-.2370000034570694
-.3709999918937683
-.421999990940094
-.40299999713897705
-.3490000069141388
-.2809999883174896
-.2150000035762787
-.15600000321865082
-.11400000005960464
-.09200000017881393
-.07900000363588333
-.0689999982714653
-.06300000101327896
-.061000000685453415
-.05999999865889549
-.05900000035762787
-.05000000074505806
-.05400000140070915
-.05400000140070915
-.057999998331069946
-.0560000017285347
-.04600000008940697
-.027000000700354576
-.012000000104308128
.003000000026077032
.014000000432133675
.01600000075995922
.01899999938905239
.01600000075995922
.01600000075995922
.007000000216066837
-.0020000000949949026
-.003000000026077032
.006000000052154064
.027000000700354576
.04800000041723251
.05999999865889549
.0560000017285347
.0430000014603138
.02800000086426735
.010999999940395355
.01600000075995922
.035999998450279236
.05700000002980232
.08500000089406967
.12399999797344208
.13699999451637268
.1379999965429306
.13899999856948853
.12200000137090683
.12399999797344208
.1289999932050705
.1289999932050705
.13500000536441803
.13699999451637268
.12600000202655792
.13199999928474426
.14300000667572021
.1379999965429306
.1340000033378601
.11599999666213989
.09799999743700027
.08299999684095383
.08299999684095383
.07800000160932541
.07999999821186066
.07800000160932541
.06599999964237213
.04699999839067459
.03200000151991844
.0020000000949949026
-.013000000268220901
-.017999999225139618
-.019999999552965164
-.01600000075995922
-.012000000104308128
-.012000000104308128
-.029999999329447746
-.04500000178813934
-.05900000035762787
-.0560000017285347
-.05700000002980232
-.0430000014603138
-.028999999165534973
-.02500000037252903
-.014999999664723873
-.02800000086426735
-.04399999976158142
-.050999999046325684
-.061000000685453415
-.06400000303983688
-.050999999046325684
-.04100000113248825
-.05000000074505806
-.04600000008940697
-.06700000166893005
-.07599999755620956
-.06700000166893005
-.04500000178813934
-.023000000044703484
-.014999999664723873
-.01899999938905239
-.03700000047683716
-.04800000041723251
-.052000001072883606
-.04800000041723251
-.04800000041723251
-.02800000086426735
-.01899999938905239
-.004000000189989805
.027000000700354576
.041999999433755875
.035999998450279236
.029999999329447746
.008999999612569809
-.004999999888241291
.003000000026077032
.010999999940395355
.017999999225139618
.03099999949336052
.017999999225139618
.0020000000949949026
-.010999999940395355
-.02199999988079071
-.019999999552965164
-.026000000536441803
-.03500000014901161
-.03999999910593033
-.050999999046325684
-.05900000035762787
-.04399999976158142
-.03999999910593033
-.035999998450279236
-.04100000113248825
-.06300000101327896
-.07500000298023224
-.07400000095367432
-.07900000363588333
-.08100000023841858
-.08299999684095383
-.08699999749660492
-.09600000083446503
-.0860000029206276
-.08100000023841858
-.09600000083446503
-.11599999666213989
-.1459999978542328
-.16099999845027924
-.125
-.06199999898672104
.007000000216066837
.06800000369548798
.11599999666213989
.18199999630451202
.25099998712539673
.30000001192092896
.3070000112056732
.23399999737739563
.07000000029802322
-.11900000274181366
-.29499998688697815
-.39100000262260437
-.41600000858306885
-.39399999380111694
-.34599998593330383
-.28200000524520874
-.21699999272823334
-.17100000381469727
-.12800000607967377
-.09799999743700027
-.07599999755620956
-.07100000232458115
-.06400000303983688
-.06300000101327896
-.06599999964237213
-.07199999690055847
-.07500000298023224
-.057999998331069946
-.039000000804662704
-.02500000037252903
-.023000000044703484
-.01899999938905239
-.019999999552965164
-.014999999664723873
-.006000000052154064
-.0020000000949949026
-.010999999940395355
-.024000000208616257
-.029999999329447746
-.02199999988079071
.004000000189989805
.01600000075995922
.017000000923871994
.00800000037997961
-.0010000000474974513
-.01899999938905239
-.008999999612569809
.012000000104308128
.04100000113248825
.06800000369548798
.08100000023841858
.04899999871850014
.019999999552965164
.0020000000949949026
-.0010000000474974513
.041999999433755875
.10199999809265137
.14499999582767487
.16599999368190765
.15800000727176666
.12800000607967377
.12099999934434891
.12700000405311584
.13300000131130219
.13300000131130219
.12800000607967377
.1120000034570694
.11500000208616257
.11500000208616257
.11999999731779099
.12399999797344208
.12399999797344208
.11599999666213989
.10400000214576721
.08900000154972076
.0729999989271164
.06199999898672104
.032999999821186066
.013000000268220901
.012000000104308128
.009999999776482582
.01600000075995922
.023000000044703484
.027000000700354576
.027000000700354576
.013000000268220901
-.004000000189989805
-.01899999938905239
-.02800000086426735
-.041999999433755875
-.04800000041723251
-.04399999976158142
-.05000000074505806
-.04800000041723251
-.04600000008940697
-.0430000014603138
-.03700000047683716
-.027000000700354576
-.027000000700354576
-.032999999821186066
-.04100000113248825
-.05900000035762787
-.057999998331069946
-.05400000140070915
-.04699999839067459
-.02800000086426735
-.007000000216066837
0.
-.003000000026077032
-.009999999776482582
-.01899999938905239
-.020999999716877937
-.035999998450279236
-.04899999871850014
-.04899999871850014
-.052000001072883606
-.039000000804662704
-.026000000536441803
-.020999999716877937
-.017000000923871994
-.017999999225139618
-.02800000086426735
-.01899999938905239
-.0020000000949949026
.0010000000474974513
.01600000075995922
.013000000268220901
-.00800000037997961
-.004000000189989805
.010999999940395355
.017999999225139618
.035999998450279236
.041999999433755875
.028999999165534973
.017000000923871994
-.014999999664723873
-.041999999433755875
-.04399999976158142
-.04500000178813934
-.04399999976158142
-.029999999329447746,1666205563.2862358
-.03099999949336052
-.03200000151991844
-.041999999433755875
-.0729999989271164
-.08900000154972076
-.10599999874830246
-.11900000274181366
-.11999999731779099
-.1120000034570694
-.11100000143051147
-.10499999672174454
-.10100000351667404
-.10300000011920929
-.10499999672174454
-.10999999940395355
-.10400000214576721
-.09399999678134918
-.06199999898672104
-.019999999552965164
.017999999225139618
.07199999690055847
.15600000321865082
.23600000143051147
.30799999833106995
.32100000977516174
.24899999797344208
.10700000077486038
-.0729999989271164
-.257999986410141
-.3869999945163727
-.4359999895095825
-.4399999976158142
-.40299999713897705
-.33799999952316284
-.26600000262260437
-.1979999989271164
-.15000000596046448
-.125
-.1080000028014183
-.0989999994635582
-.09300000220537186
-.08699999749660492
-.07699999958276749
-.07100000232458115
-.057999998331069946
-.04800000041723251
-.04500000178813934
-.04600000008940697
-.05400000140070915
-.052000001072883606
-.04699999839067459
-.04100000113248825
-.03400000184774399
-.02199999988079071
-.012000000104308128
-.013000000268220901
-.00800000037997961
-.009999999776482582
-.017999999225139618
-.026000000536441803
-.03400000184774399
-.02500000037252903
0.
.014000000432133675
.02199999988079071
.029999999329447746
.03999999910593033
.050999999046325684
.05700000002980232
.05400000140070915
.061000000685453415
.06800000369548798
.07800000160932541
.09300000220537186
.08799999952316284
.09300000220537186
.08799999952316284
.08399999886751175
.10199999809265137
.13300000131130219
.16099999845027924
.17100000381469727
.16300000250339508
.1340000033378601
.1120000034570694
.09700000286102295
.09300000220537186
.0949999988079071
.10100000351667404
.09700000286102295
.08100000023841858
.0729999989271164
.057999998331069946
.04500000178813934
.04899999871850014
.04800000041723251
.03799999877810478
.02800000086426735
.00800000037997961
-.00800000037997961
-.014999999664723873
-.017999999225139618
-.024000000208616257
-.019999999552965164
-.024000000208616257
-.03400000184774399
-.032999999821186066
-.03999999910593033
-.052000001072883606
-.0560000017285347
-.05900000035762787
-.05999999865889549
-.039000000804662704
-.02199999988079071
-.02199999988079071
-.02500000037252903
-.04600000008940697
-.06700000166893005
-.05700000002980232
-.03999999910593033
-.028999999165534973
-.01899999938905239
-.029999999329447746
-.04600000008940697
-.06199999898672104
-.06499999761581421
-.05900000035762787
-.04899999871850014
-.03700000047683716
-.028999999165534973
-.027000000700354576
-.02500000037252903
-.019999999552965164
-.023000000044703484
-.019999999552965164
-.01600000075995922
-.017000000923871994
-.004999999888241291
.009999999776482582
.012000000104308128
.020999999716877937
.02199999988079071
.012000000104308128
.007000000216066837
.00800000037997961
.012000000104308128
.023000000044703484
.026000000536441803
.012000000104308128
.019999999552965164
.008999999612569809
.004000000189989805
.013000000268220901
.014999999664723873
.010999999940395355
.004000000189989805
-.008999999612569809
-.01899999938905239
-.028999999165534973
-.0430000014603138
-.05299999937415123
-.06199999898672104
-.07199999690055847
-.08799999952316284
-.10000000149011612
-.10000000149011612
-.09399999678134918
-.08500000089406967
-.07699999958276749
-.07400000095367432
-.07900000363588333
-.0860000029206276
-.10199999809265137
-.125
-.14100000262260437
-.15700000524520874
-.14800000190734863
-.11299999803304672
-.04500000178813934
.027000000700354576
.09399999678134918
.15299999713897705
.23100000619888306
.30799999833106995
.32899999618530273
.3019999861717224
.19699999690055847
.009999999776482582
-.1770000010728836
-.3370000123977661
-.4180000126361847
-.41999998688697815
-.37400001287460327
-.31299999356269836
-.24400000274181366
-.1850000023841858
-.1599999964237213
-.12800000607967377
-.10599999874830246
-.0820000022649765
-.07699999958276749
-.05999999865889549
-.0560000017285347
-.05700000002980232
-.0560000017285347
-.06400000303983688
-.0689999982714653
-.06599999964237213
-.06800000369548798
-.05999999865889549
-.04500000178813934
-.03200000151991844
-.019999999552965164
-.017000000923871994
-.007000000216066837
-.00800000037997961
0.
.009999999776482582
.026000000536441803
.03700000047683716
.03700000047683716
.03200000151991844
.017000000923871994
.012000000104308128
.004999999888241291
.013000000268220901
.03099999949336052
.05000000074505806
.06599999964237213
.06199999898672104
.0689999982714653
.06400000303983688
.06700000166893005
.08100000023841858
.08900000154972076
.10999999940395355
.12300000339746475
.12399999797344208
.12200000137090683
.1379999965429306
.15000000596046448
.16200000047683716
.16300000250339508
.1599999964237213
.15600000321865082
.13899999856948853
.12999999523162842
.1289999932050705
.12700000405311584
.13199999928474426
.12700000405311584
.11100000143051147
.0989999994635582
.08299999684095383
.07699999958276749
.06700000166893005
.05000000074505806
.02800000086426735
-.006000000052154064
-.014000000432133675
-.014999999664723873
-.004999999888241291
.010999999940395355
.014000000432133675
-.012000000104308128
-.03099999949336052
-.052000001072883606
-.06300000101327896
-.04600000008940697
-.03999999910593033
-.03099999949336052
-.03400000184774399
-.035999998450279236
-.03700000047683716
-.03700000047683716
-.03200000151991844
-.026000000536441803
-.035999998450279236
-.04500000178813934
-.061000000685453415
-.07900000363588333
-.0729999989271164
-.06499999761581421
-.0560000017285347
-.039000000804662704
-.035999998450279236
-.029999999329447746
-.01600000075995922
-.009999999776482582
-.004000000189989805
-.003000000026077032
-.00800000037997961
-.013000000268220901
-.02500000037252903
-.03099999949336052
-.027000000700354576
-.02500000037252903
-.024000000208616257
-.017999999225139618
-.014999999664723873,1666205564.286206
-.026000000536441803
-.027000000700354576
-.020999999716877937
-.00800000037997961
.01600000075995922
.03400000184774399
.03999999910593033
.04500000178813934
.05000000074505806
.03999999910593033
.04699999839067459
.05900000035762787
.05900000035762787
.054999999701976776
.04600000008940697
.028999999165534973
.009999999776482582
-.00800000037997961
-.03200000151991844
-.03400000184774399
-.02199999988079071
-.009999999776482582
-.004000000189989805
-.01600000075995922
-.03700000047683716
-.06300000101327896
-.09600000083446503
-.10599999874830246
-.10100000351667404
-.0949999988079071
-.08299999684095383
-.07400000095367432
-.07400000095367432
-.07100000232458115
-.07100000232458115
-.08799999952316284
-.08399999886751175
-.08799999952316284
-.0860000029206276
-.06400000303983688
-.01899999938905239
.050999999046325684
.13500000536441803
.21899999678134918
.2980000078678131
.35100001096725464
.33399999141693115
.2639999985694885
.13600000739097595
-.02500000037252903
-.1809999942779541
-.3089999854564667
-.3799999952316284
-.3880000114440918
-.35899999737739563
-.3089999854564667
-.23399999737739563
-.17100000381469727
-.11500000208616257
-.07900000363588333
-.05700000002980232
-.04800000041723251
-.057999998331069946
-.07100000232458115
-.06800000369548798
-.05400000140070915
-.03200000151991844
-.0020000000949949026
.017000000923871994
.03200000151991844
.026000000536441803
.012000000104308128
.007000000216066837
.004999999888241291
-.0010000000474974513
0.
-.007000000216066837
-.009999999776482582
-.003000000026077032
-.004000000189989805
-.0010000000474974513
.006000000052154064
.006000000052154064
.010999999940395355
.029999999329447746
.039000000804662704
.057999998331069946
.07100000232458115
.07000000029802322
.06700000166893005
.07500000298023224
.0689999982714653
.07999999821186066
.09600000083446503
.11100000143051147
.13699999451637268
.15399999916553497
.16699999570846558
.17100000381469727
.1720000058412552
.15399999916553497
.1509999930858612
.164000004529953
.1770000010728836
.1940000057220459
.20100000500679016
.20100000500679016
.1889999955892563
.17399999499320984
.15800000727176666
.14499999582767487
.1459999978542328
.14399999380111694
.1420000046491623
.13600000739097595
.125
.10000000149011612
.0689999982714653
.04600000008940697
.032999999821186066
.03400000184774399
.04600000008940697
.04699999839067459
.04399999976158142
.032999999821186066
.023000000044703484
.009999999776482582
.004000000189989805
.0020000000949949026
-.004999999888241291
-.017999999225139618
-.019999999552965164
-.02500000037252903
-.017999999225139618
-.004999999888241291
.013000000268220901
.023000000044703484
.027000000700354576
.01899999938905239
.004000000189989805
.012000000104308128
.004000000189989805
0.
-.007000000216066837
-.017999999225139618
-.03500000014901161
-.03700000047683716
-.027000000700354576
-.007000000216066837
.013000000268220901
.004000000189989805
.004999999888241291
.014999999664723873
.017999999225139618
.01899999938905239
.014999999664723873
.00800000037997961
0.
.004000000189989805
.01899999938905239
.04699999839067459
.04800000041723251
.03500000014901161
.01600000075995922
.0010000000474974513
.012000000104308128
.029999999329447746
.03400000184774399
.032999999821186066
.027000000700354576
.020999999716877937
.04699999839067459
.07999999821186066
.10300000011920929
.12600000202655792
.10199999809265137
.06400000303983688
.035999998450279236
.017000000923871994
.014000000432133675
.028999999165534973
.03500000014901161
.04100000113248825
.03700000047683716
.01600000075995922
0.
-.027000000700354576
-.052000001072883606
-.0820000022649765
-.08500000089406967
-.07999999821186066
-.09799999743700027
-.10100000351667404
-.09399999678134918
-.08799999952316284
-.07599999755620956
-.04500000178813934
-.03200000151991844
-.01600000075995922
-.01600000075995922
-.032999999821186066
-.028999999165534973
-.01899999938905239
.013000000268220901
.07400000095367432
.16300000250339508
.2529999911785126
.3449999988079071
.3930000066757202
.38600000739097595
.31200000643730164
.18199999630451202
.02199999988079071
-.14100000262260437
-.29100000858306885
-.375
-.3869999945163727
-.3490000069141388
-.27300000190734863
-.20100000500679016
-.1459999978542328
-.08100000023841858
-.04500000178813934
-.027000000700354576
-.0020000000949949026
0.
-.006000000052154064
.004000000189989805
-.02500000037252903
-.039000000804662704
-.028999999165534973
-.03400000184774399
-.01899999938905239
.023000000044703484
.06599999964237213
.07800000160932541
.07000000029802322
.03200000151991844
0.
-.019999999552965164
-.009999999776482582
.024000000208616257
.0689999982714653
.10599999874830246
.09799999743700027
.0860000029206276
.05299999937415123
.013000000268220901
.014999999664723873
.04899999871850014
.09799999743700027
.13099999725818634
.1469999998807907
.13500000536441803
.11800000071525574
.09099999815225601
.08900000154972076
.1080000028014183
.14100000262260437
.1720000058412552
.17299999296665192
.19099999964237213
.20499999821186066
.20800000429153442
.21400000154972076
.22100000083446503
.2070000022649765
.19599999487400055
.1889999955892563
.17900000512599945
.1899999976158142
.19200000166893005
.15199999511241913
.10300000011920929
.08900000154972076
.09200000017881393
.07999999821186066
.05999999865889549
.02800000086426735
.013000000268220901
.014000000432133675
.010999999940395355
.03999999910593033
.0820000022649765
.10300000011920929
.10100000351667404
.0989999994635582
.11800000071525574
.1420000046491623
.11800000071525574
.07400000095367432
.029999999329447746
-.0010000000474974513
-.01899999938905239
-.029999999329447746
-.028999999165534973
-.017999999225139618
-.017000000923871994
-.020999999716877937
-.02199999988079071,1666205565.286177
-.019999999552965164
-.0010000000474974513
-.006000000052154064
-.06800000369548798
-.11400000005960464
-.10899999737739563
-.10199999809265137
-.0729999989271164
-.032999999821186066
-.014000000432133675
.006000000052154064
.013000000268220901
-.00800000037997961
-.00800000037997961
-.008999999612569809
-.0430000014603138
-.0689999982714653
-.06599999964237213
-.04899999871850014
-.02800000086426735
-.019999999552965164
-.027000000700354576
-.03500000014901161
-.03099999949336052
-.02199999988079071
-.014999999664723873
-.004000000189989805
-.010999999940395355
-.026000000536441803
-.01600000075995922
-.0020000000949949026
.026000000536441803
.057999998331069946
-.007000000216066837
-.0989999994635582
-.1420000046491623
-.1550000011920929
-.12800000607967377
-.05299999937415123
-.004999999888241291
.007000000216066837
.008999999612569809
-.03099999949336052
-.04399999976158142
-.03099999949336052
-.035999998450279236
-.057999998331069946
-.06499999761581421
-.05900000035762787
-.07000000029802322
-.08299999684095383
-.10199999809265137
-.11800000071525574
-.12600000202655792
-.11999999731779099
-.10000000149011612
-.0689999982714653
-.02500000037252903
-.03400000184774399
-.10499999672174454
-.15800000727176666
-.1770000010728836
-.14000000059604645
-.06199999898672104
.019999999552965164
.08699999749660492
.17100000381469727
.2409999966621399
.2939999997615814
.33899998664855957
.30799999833106995
.1979999989271164
.035999998450279236
-.11800000071525574
-.21799999475479126
-.25600001215934753
-.2709999978542328
-.2720000147819519
-.24699999392032623
-.2029999941587448
-.13199999928474426
-.07400000095367432
-.03500000014901161
-.03400000184774399
-.05900000035762787
-.07000000029802322
-.07999999821186066
-.05700000002980232
-.01600000075995922
.004999999888241291
.017000000923871994
.010999999940395355
-.006000000052154064
-.004000000189989805
.02800000086426735
.03799999877810478
.0560000017285347
.05999999865889549
.04800000041723251
.0430000014603138
.04500000178813934
.0430000014603138
-.003000000026077032
-.026000000536441803
-.03500000014901161
-.007000000216066837
.04899999871850014
.11299999803304672
.14300000667572021
.15600000321865082
.1459999978542328
.12800000607967377
.1340000033378601
.12600000202655792
.09799999743700027
.04800000041723251
.009999999776482582
.006000000052154064
.039000000804662704
.07900000363588333
.12399999797344208
.1550000011920929
.18299999833106995
.21199999749660492
.23600000143051147
.23999999463558197
.2240000069141388
.20200000703334808
.16500000655651093
.15800000727176666
.17000000178813934
.18400000035762787
.17900000512599945
.18199999630451202
.18400000035762787
.1720000058412552
.15800000727176666
.13099999725818634
.11400000005960464
.1080000028014183
.10599999874830246
.11500000208616257
.12999999523162842
.12600000202655792
.10999999940395355
.09000000357627869
.0729999989271164
.07599999755620956
.06400000303983688
.041999999433755875
.03400000184774399
.017000000923871994
-.010999999940395355
-.017999999225139618
-.013000000268220901
-.0020000000949949026
.00800000037997961
.01600000075995922
.013000000268220901
.009999999776482582
0.
-.00800000037997961
-.014999999664723873
-.009999999776482582
-.006000000052154064
.003000000026077032
.017000000923871994
.029999999329447746
.03099999949336052
.02500000037252903
.024000000208616257
.017999999225139618
.032999999821186066
.05400000140070915
.0689999982714653
.07500000298023224
.08699999749660492
.08900000154972076
.0860000029206276
.07400000095367432
.050999999046325684
.04399999976158142
.03999999910593033
.03400000184774399
.014999999664723873
.019999999552965164
.028999999165534973
.0430000014603138
.08399999886751175
.13699999451637268
.16500000655651093
.14900000393390656
.11999999731779099
.07999999821186066
.06800000369548798
.06599999964237213
.061000000685453415
.07000000029802322
.0949999988079071
.09399999678134918
.09000000357627869
.10000000149011612
.08500000089406967
.057999998331069946
.029999999329447746
.012000000104308128
.004999999888241291
.0020000000949949026
-.0020000000949949026
.004000000189989805
.009999999776482582
.013000000268220901
.008999999612569809
.0010000000474974513
-.0020000000949949026
-.007000000216066837
-.008999999612569809
-.010999999940395355
-.013000000268220901
-.012000000104308128
.007000000216066837
.04100000113248825
.10300000011920929
.17000000178813934
.2370000034570694
.3140000104904175
.40299999713897705
.4480000138282776
.4309999942779541
.34299999475479126
.16300000250339508
-.052000001072883606
-.2290000021457672
-.33000001311302185
-.32600000500679016
-.25600001215934753
-.1860000044107437
-.125
-.08699999749660492
-.07199999690055847
-.06199999898672104
-.0430000014603138
-.009999999776482582
.013000000268220901
.029999999329447746
.052000001072883606
.05999999865889549
.04500000178813934
.03999999910593033
.054999999701976776
.05900000035762787
.09000000357627869
.1120000034570694
.10400000214576721
.09200000017881393
.0560000017285347
.019999999552965164
.014000000432133675
.017999999225139618
.008999999612569809
.039000000804662704
.057999998331069946
.0560000017285347
.07699999958276749
.07100000232458115
.06800000369548798
.061000000685453415
.07100000232458115
.08900000154972076
.1340000033378601
.15700000524520874
.16699999570846558
.1889999955892563
.19099999964237213
.19099999964237213
.19599999487400055
.20100000500679016
.20399999618530273
.21199999749660492
.2280000001192093
.2540000081062317
.27399998903274536
.27399998903274536
.2750000059604645
.2549999952316284
.2329999953508377
.2240000069141388
.21899999678134918
.22300000488758087
.2329999953508377
.24300000071525574
.25200000405311584
.2540000081062317
.23499999940395355
.2199999988079071
.20600000023841858
.1860000044107437
.17399999499320984
.16200000047683716
.1469999998807907,1666205566.3017719
.12700000405311584
.09200000017881393
.06499999761581421
.04399999976158142
.04699999839067459
.07400000095367432
.11500000208616257
.13699999451637268
.1340000033378601
.10700000077486038
.0689999982714653
.04899999871850014
.035999998450279236
.04500000178813934
.04600000008940697
.0430000014603138
.03400000184774399
.02800000086426735
.03200000151991844
.03099999949336052
.039000000804662704
.04800000041723251
.05700000002980232
.06599999964237213
.09000000357627869
.09099999815225601
.0820000022649765
.06800000369548798
.04100000113248825
.03500000014901161
.052000001072883606
.07100000232458115
.0949999988079071
.11500000208616257
.09700000286102295
.06499999761581421
.029999999329447746
.014000000432133675
.024000000208616257
.05900000035762787
.08900000154972076
.11299999803304672
.11500000208616257
.09600000083446503
.09000000357627869
.09799999743700027
.11100000143051147
.11800000071525574
.11599999666213989
.10300000011920929
.0989999994635582
.14100000262260437
.17599999904632568
.22699999809265137
.25699999928474426
.20399999618530273
.14499999582767487
.08900000154972076
.0430000014603138
.03400000184774399
.06400000303983688
.07199999690055847
.0989999994635582
.0989999994635582
.06300000101327896
.041999999433755875
.019999999552965164
.02199999988079071
.035999998450279236
.050999999046325684
.06700000166893005
.06199999898672104
.03400000184774399
.019999999552965164
.007000000216066837
.013000000268220901
.004999999888241291
-.012000000104308128
.004999999888241291
.04600000008940697
.10400000214576721
.18000000715255737
.2879999876022339
.41499999165534973
.5180000066757202
.5339999794960022
.4909999966621399
.375
.1979999989271164
.01600000075995922
-.12999999523162842
-.18799999356269836
-.19099999964237213
-.17000000178813934
-.11900000274181366
-.0560000017285347
.00800000037997961
.04600000008940697
.06400000303983688
.07500000298023224
.0820000022649765
.08500000089406967
.09300000220537186
.10199999809265137
.10100000351667404
.1080000028014183
.10300000011920929
.09099999815225601
.08799999952316284
.07800000160932541
.06700000166893005
.057999998331069946
.0729999989271164
.0949999988079071
.12300000339746475
.14800000190734863
.1509999930858612
.14800000190734863
.13300000131130219
.11800000071525574
.1080000028014183
.10199999809265137
.0949999988079071
.0860000029206276
.07999999821186066
.08299999684095383
.09799999743700027
.10999999940395355
.11900000274181366
.12999999523162842
.11699999868869781
.12399999797344208
.13199999928474426
.14100000262260437
.16699999570846558
.18700000643730164
.1889999955892563
.19099999964237213
.17900000512599945
.1770000010728836
.20499999821186066
.210999995470047
.2199999988079071
.22300000488758087
.1940000057220459
.18199999630451202
.21299999952316284
.23499999940395355
.2630000114440918
.25999999046325684
.20399999618530273
.14900000393390656
.11400000005960464
.09300000220537186
.09799999743700027
.11500000208616257
.10100000351667404
.07900000363588333
.06400000303983688
.041999999433755875
.019999999552965164
.012000000104308128
.003000000026077032
-.004999999888241291
-.014000000432133675
-.007000000216066837
.006000000052154064
.012000000104308128
.003000000026077032
-.014999999664723873
-.017999999225139618
-.013000000268220901
0.
.02500000037252903
.052000001072883606
.05700000002980232
.04500000178813934
.024000000208616257
.008999999612569809
.024000000208616257
.02500000037252903
.01600000075995922
.008999999612569809
-.014999999664723873
-.024000000208616257
-.024000000208616257
-.013000000268220901
.008999999612569809
.03099999949336052
.03700000047683716
.019999999552965164
.004999999888241291
-.004999999888241291
-.007000000216066837
-.00800000037997961
.006000000052154064
.02199999988079071
.026000000536441803
.01899999938905239
-.004999999888241291
-.007000000216066837
-.008999999612569809
-.0020000000949949026
.023000000044703484
.050999999046325684
.07599999755620956
.09300000220537186
.08299999684095383
.07100000232458115
.04800000041723251
.024000000208616257
.00800000037997961
.013000000268220901
.02800000086426735
.04899999871850014
.06599999964237213
.06800000369548798
.06800000369548798
.04899999871850014
.04699999839067459
.039000000804662704
.03400000184774399
.03200000151991844
.026000000536441803
.01899999938905239
.013000000268220901
-.003000000026077032
-.01899999938905239
-.03799999877810478
-.06300000101327896
-.08399999886751175
-.10899999737739563
-.12099999934434891
-.10400000214576721
-.07900000363588333
-.04699999839067459
-.0020000000949949026
.017999999225139618
.017000000923871994
.010999999940395355
-.012000000104308128
-.004999999888241291
.02199999988079071
.0689999982714653
.13600000739097595
.22499999403953552
.3409999907016754
.4480000138282776
.5090000033378601
.4880000054836273
.3840000033378601
.19499999284744263
-.003000000026077032
-.16300000250339508
-.2549999952316284
-.26499998569488525
-.21899999678134918
-.17499999701976776
-.12399999797344208
-.07800000160932541
-.04600000008940697
-.013000000268220901
.01600000075995922
.02800000086426735
.03200000151991844
.02800000086426735
-.0020000000949949026
-.023000000044703484
-.03200000151991844
-.014999999664723873
0.
.028999999165534973
.04699999839067459
.06499999761581421
.07199999690055847
.06199999898672104
.050999999046325684
.035999998450279236
.020999999716877937
-.0430000014603138
-.06400000303983688
-.07199999690055847
-.0560000017285347
-.009999999776482582
.04100000113248825
.06499999761581421
.06700000166893005
.06700000166893005
.03099999949336052
.04500000178813934
.07000000029802322
.09000000357627869
.10899999737739563
.11400000005960464
.10899999737739563
.10300000011920929
.11100000143051147
.11400000005960464
.12200000137090683
.13500000536441803,1666205567.3017375
.1459999978542328
.1459999978542328
.1589999943971634
.18000000715255737
.17100000381469727
.164000004529953
.14499999582767487
.1289999932050705
.14900000393390656
.1809999942779541
.19900000095367432
.2240000069141388
.20999999344348907
.17000000178813934
.1469999998807907
.12800000607967377
.10499999672174454
.09600000083446503
.0729999989271164
.04899999871850014
.04500000178813934
.03999999910593033
.024000000208616257
.023000000044703484
.02199999988079071
.003000000026077032
.008999999612569809
.019999999552965164
.017999999225139618
.014000000432133675
-.007000000216066837
-.035999998450279236
-.04399999976158142
-.052000001072883606
-.06499999761581421
-.06400000303983688
-.05700000002980232
-.05900000035762787
-.04399999976158142
-.03200000151991844
-.02800000086426735
-.035999998450279236
-.054999999701976776
-.07400000095367432
-.07500000298023224
-.04899999871850014
-.03799999877810478
-.024000000208616257
-.017000000923871994
-.03200000151991844
-.04500000178813934
-.04800000041723251
-.04100000113248825
-.03500000014901161
-.024000000208616257
-.027000000700354576
-.029999999329447746
-.035999998450279236
-.054999999701976776
-.07599999755620956
-.08100000023841858
-.06599999964237213
-.04800000041723251
-.019999999552965164
-.0020000000949949026
.004999999888241291
.004999999888241291
-.0020000000949949026
-.0020000000949949026
.0020000000949949026
.006000000052154064
.009999999776482582
.017999999225139618
.014000000432133675
-.0010000000474974513
-.027000000700354576
-.032999999821186066
-.023000000044703484
.0010000000474974513
.035999998450279236
.06499999761581421
.07000000029802322
.04800000041723251
.008999999612569809
-.013000000268220901
-.01899999938905239
-.017000000923871994
-.017000000923871994
-.02500000037252903
-.03400000184774399
-.05900000035762787
-.0860000029206276
-.10599999874830246
-.10700000077486038
-.10400000214576721
-.10300000011920929
-.10199999809265137
-.09099999815225601
-.07699999958276749
-.07599999755620956
-.07699999958276749
-.09099999815225601
-.1120000034570694
-.12200000137090683
-.12999999523162842
-.11500000208616257
-.06400000303983688
-.013000000268220901
.041999999433755875
.10199999809265137
.17299999296665192
.2590000033378601
.3440000116825104
.36500000953674316
.328000009059906
.21799999475479126
.03999999910593033
-.14000000059604645
-.2930000126361847
-.38100001215934753
-.40700000524520874
-.382999986410141
-.3310000002384186
-.24799999594688416
-.16200000047683716
-.08799999952316284
-.057999998331069946
-.061000000685453415
-.07199999690055847
-.09000000357627869
-.08900000154972076
-.07000000029802322
-.05000000074505806
-.03099999949336052
-.02500000037252903
-.028999999165534973
-.04399999976158142
-.03400000184774399
-.009999999776482582
.01899999938905239
.039000000804662704
.04899999871850014
.019999999552965164
-.017000000923871994
-.04699999839067459
-.06300000101327896
-.035999998450279236
.00800000037997961
.04699999839067459
.07000000029802322
.06199999898672104
.04399999976158142
0.
-.03400000184774399
-.024000000208616257
0.
.03200000151991844
.0729999989271164
.09000000357627869
.07500000298023224
.09000000357627869
.08500000089406967
.0949999988079071
.10899999737739563
.10000000149011612
.07900000363588333
.09099999815225601
.10899999737739563
.13500000536441803
.17900000512599945
.18799999356269836
.18199999630451202
.17000000178813934
.14800000190734863
.13699999451637268
.13899999856948853
.12600000202655792
.13300000131130219
.13699999451637268
.13099999725818634
.13500000536441803
.12399999797344208
.09600000083446503
.07699999958276749
.04899999871850014
0.
-.01899999938905239
-.013000000268220901
-.013000000268220901
-.014000000432133675
-.014999999664723873
-.02500000037252903
-.020999999716877937
-.003000000026077032
.007000000216066837
.03099999949336052
.035999998450279236
0.
-.035999998450279236
-.04899999871850014
-.03200000151991844
-.012000000104308128
-.017000000923871994
-.05299999937415123
-.07400000095367432
-.06700000166893005
-.039000000804662704
-.004999999888241291
.012000000104308128
.008999999612569809
-.02199999988079071
-.04600000008940697
-.04600000008940697
-.020999999716877937
.0010000000474974513
-.006000000052154064
-.032999999821186066
-.04500000178813934
-.04699999839067459
-.02800000086426735
-.017000000923871994
-.00800000037997961
.004000000189989805
-.010999999940395355
-.06400000303983688
-.10599999874830246
-.11299999803304672
-.11900000274181366
-.10899999737739563
-.09000000357627869
-.04399999976158142
.03400000184774399
.09300000220537186
.13699999451637268
.15800000727176666
.15299999713897705
.10100000351667404
.041999999433755875
.010999999940395355
.0010000000474974513
.00800000037997961
.007000000216066837
.014999999664723873
.02199999988079071
.03099999949336052
.02199999988079071
.019999999552965164
.02199999988079071
.035999998450279236
.0689999982714653
.08399999886751175
.05299999937415123
.010999999940395355
-.03200000151991844
-.057999998331069946
-.050999999046325684
-.020999999716877937
-.03700000047683716
-.057999998331069946
-.09099999815225601
-.11599999666213989
-.1120000034570694
-.08100000023841858
-.05400000140070915
-.035999998450279236
-.03200000151991844
-.07699999958276749
-.11100000143051147
-.1420000046491623
-.12099999934434891
-.05900000035762787
.039000000804662704
.13500000536441803
.22200000286102295
.2720000147819519
.3019999861717224
.32499998807907104
.3230000138282776
.3140000104904175
.22599999606609344
.09799999743700027
-.050999999046325684
-.1770000010728836
-.25200000405311584
-.26600000262260437
-.2290000021457672
-.16200000047683716
-.08299999684095383
-.029999999329447746
.00800000037997961
.017999999225139618
.019999999552965164
.017999999225139618
.03200000151991844
.05999999865889549
.07999999821186066
.06800000369548798
.06499999761581421
.05900000035762787
.057999998331069946,1666205568.2860832
.07800000160932541
.10400000214576721
.12999999523162842
.1469999998807907
.1469999998807907
.12099999934434891
.11699999868869781
.10000000149011612
.09000000357627869
.08399999886751175
.0820000022649765
.08699999749660492
.10300000011920929
.11400000005960464
.13300000131130219
.15299999713897705
.1589999943971634
.16300000250339508
.15000000596046448
.13300000131130219
.11999999731779099
.125
.11800000071525574
.1340000033378601
.13500000536441803
.1289999932050705
.14300000667572021
.1589999943971634
.1809999942779541
.20200000703334808
.2329999953508377
.23600000143051147
.23899999260902405
.21699999272823334
.19099999964237213
.18700000643730164
.18299999833106995
.1850000023841858
.1899999976158142
.19900000095367432
.16599999368190765
.12200000137090683
.0820000022649765
.07999999821186066
.10400000214576721
.12800000607967377
.1550000011920929
.18299999833106995
.1899999976158142
.1770000010728836
.12999999523162842
.10700000077486038
.09200000017881393
.06199999898672104
.041999999433755875
.03799999877810478
.03099999949336052
.01899999938905239
-.004000000189989805
-.01899999938905239
.01600000075995922
.03200000151991844
.052000001072883606
.052000001072883606
.04500000178813934
.028999999165534973
.02800000086426735
.010999999940395355
.026000000536441803
.03500000014901161
.02500000037252903
.014000000432133675
-.004000000189989805
-.003000000026077032
-.007000000216066837
.0020000000949949026
-.0020000000949949026
.006000000052154064
.003000000026077032
.009999999776482582
.024000000208616257
.03799999877810478
.04800000041723251
.050999999046325684
.052000001072883606
.0430000014603138
.04100000113248825
.0430000014603138
.06199999898672104
.07500000298023224
.09200000017881393
.10000000149011612
.10400000214576721
.10899999737739563
.09399999678134918
.08900000154972076
.09399999678134918
.10499999672174454
.09799999743700027
.0989999994635582
.0860000029206276
.07400000095367432
.08699999749660492
.09399999678134918
.10999999940395355
.11500000208616257
.10899999737739563
.07699999958276749
.05000000074505806
.03200000151991844
.023000000044703484
.029999999329447746
.028999999165534973
.013000000268220901
-.03099999949336052
-.06400000303983688
-.09300000220537186
-.10700000077486038
-.06300000101327896
-.01899999938905239
.019999999552965164
.04399999976158142
.03999999910593033
.0020000000949949026
-.03700000047683716
-.0729999989271164
-.09000000357627869
-.05400000140070915
-.019999999552965164
.03700000047683716
.11100000143051147
.1940000057220459
.30000001192092896
.4009999930858612
.4650000035762787
.4490000009536743
.35499998927116394
.16599999368190765
-.04500000178813934
-.24500000476837158
-.382999986410141
-.4000000059604645
-.3449999988079071
-.2460000067949295
-.15000000596046448
-.07500000298023224
-.05900000035762787
-.05700000002980232
-.06400000303983688
-.03799999877810478
.0020000000949949026
.026000000536441803
.027000000700354576
.013000000268220901
0.
0.
.01600000075995922
.03400000184774399
.05000000074505806
.054999999701976776
.05400000140070915
.03799999877810478
.03400000184774399
.039000000804662704
.05299999937415123
.054999999701976776
.04399999976158142
.026000000536441803
.004999999888241291
-.008999999612569809
-.004999999888241291
-.0020000000949949026
-.008999999612569809
-.01600000075995922
-.020999999716877937
-.023000000044703484
.006000000052154064
.032999999821186066
.05400000140070915
.09099999815225601
.125
.1340000033378601
.1599999964237213
.18000000715255737
.17299999296665192
.1679999977350235
.1720000058412552
.16500000655651093
.16599999368190765
.16699999570846558
.14800000190734863
.14000000059604645
.14399999380111694
.15600000321865082
.16099999845027924
.17599999904632568
.16899999976158142
.15700000524520874
.15399999916553497
.15199999511241913
.1550000011920929
.1599999964237213
.15800000727176666
.14100000262260437
.12399999797344208
.1080000028014183
.11100000143051147
.10700000077486038
.0949999988079071
.07999999821186066
.0560000017285347
.03400000184774399
.017999999225139618
.017000000923871994
.014999999664723873
.006000000052154064
-.008999999612569809
-.03200000151991844
-.032999999821186066
-.028999999165534973
-.01899999938905239
-.003000000026077032
.010999999940395355
.013000000268220901
.007000000216066837
.0020000000949949026
-.008999999612569809
-.02199999988079071
-.024000000208616257
-.012000000104308128
-.0010000000474974513
-.0020000000949949026
0.
-.013000000268220901
-.02800000086426735
-.02500000037252903
-.023000000044703484
.012000000104308128
.04699999839067459
.07400000095367432
.08500000089406967
.09300000220537186
.07699999958276749
.054999999701976776
.039000000804662704
.03200000151991844
.041999999433755875
.052000001072883606
.0729999989271164
.08100000023841858
.09399999678134918
.09300000220537186
.09399999678134918
.09300000220537186
.09399999678134918
.0989999994635582
.10000000149011612
.09700000286102295
.08500000089406967
.07500000298023224
.05999999865889549
.07000000029802322
.08799999952316284
.0989999994635582
.0989999994635582
.07900000363588333
.06599999964237213
.054999999701976776
.024000000208616257
-.012000000104308128
-.052000001072883606
-.08699999749660492
-.09799999743700027
-.0689999982714653
-.03200000151991844
.009999999776482582
.01899999938905239
.003000000026077032
-.006000000052154064
-.014999999664723873
-.029999999329447746
-.04100000113248825
-.04399999976158142
-.03500000014901161
0.
.05000000074505806
.10899999737739563
.164000004529953
.23199999332427979
.3160000145435333
.3970000147819519
.42399999499320984
.36800000071525574
.22200000286102295
.03099999949336052
-.17000000178813934
-.30799999833106995
-.3580000102519989
-.3409999907016754
-.2849999964237213,1666205569.3016822
-.21799999475479126
-.1469999998807907
-.10000000149011612
-.07400000095367432
-.06400000303983688
-.03799999877810478
-.00800000037997961
.017000000923871994
.03999999910593033
.05400000140070915
.05400000140070915
.02800000086426735
.014000000432133675
.03200000151991844
.05000000074505806
.04699999839067459
.029999999329447746
.013000000268220901
.0010000000474974513
.014999999664723873
.03999999910593033
.07100000232458115
.10000000149011612
.08500000089406967
.05999999865889549
.04800000041723251
.05299999937415123
.08100000023841858
.11299999803304672
.13600000739097595
.14399999380111694
.1379999965429306
.11599999666213989
.10700000077486038
.10100000351667404
.10400000214576721
.12300000339746475
.12399999797344208
.14100000262260437
.1459999978542328
.13699999451637268
.13099999725818634
.1289999932050705
.13199999928474426
.14900000393390656
.18000000715255737
.2070000022649765
.2280000001192093
.22599999606609344
.21400000154972076
.20000000298023224
.18199999630451202
.1679999977350235
.15399999916553497
.1550000011920929
.15600000321865082
.1589999943971634
.1679999977350235
.1809999942779541
.17499999701976776
.15800000727176666
.13899999856948853
.10700000077486038
.07699999958276749
.03999999910593033
.007000000216066837
-.020999999716877937
-.04399999976158142
-.03700000047683716
-.014000000432133675
.01600000075995922
.03400000184774399
.04399999976158142
.02800000086426735
.014999999664723873
-.007000000216066837
-.02199999988079071
-.020999999716877937
-.026000000536441803
-.03700000047683716
-.04100000113248825
-.02800000086426735
-.010999999940395355
.004999999888241291
.014999999664723873
.01600000075995922
.004000000189989805
-.004999999888241291
-.02800000086426735
-.041999999433755875
-.02800000086426735
-.01899999938905239
-.019999999552965164
-.032999999821186066
-.032999999821186066
-.020999999716877937
.003000000026077032
.01899999938905239
.03500000014901161
.0430000014603138
.027000000700354576
.014999999664723873
.024000000208616257
.05299999937415123
.07000000029802322
.07000000029802322
.057999998331069946
.024000000208616257
-.02500000037252903
-.039000000804662704
-.009999999776482582
.050999999046325684
.12300000339746475
.18299999833106995
.19599999487400055
.1720000058412552
.10599999874830246
.04399999976158142
.03999999910593033
.054999999701976776
.05900000035762787
.05400000140070915
.035999998450279236
.007000000216066837
-.010999999940395355
-.026000000536441803
-.03099999949336052
-.03099999949336052
-.02800000086426735
-.027000000700354576
-.009999999776482582
.00800000037997961
.006000000052154064
-.012000000104308128
-.03999999910593033
-.06700000166893005
-.08900000154972076
-.08299999684095383
-.0689999982714653
-.04100000113248825
-.004000000189989805
.04600000008940697
.1080000028014183
.20100000500679016
.30799999833106995
.3869999945163727
.41600000858306885
.3720000088214874
.2540000081062317
.06599999964237213
-.11299999803304672
-.26100000739097595
-.3440000116825104
-.35199999809265137
-.30300000309944153
-.23600000143051147
-.1469999998807907
-.07000000029802322
-.03200000151991844
-.017000000923871994
-.026000000536441803
-.03700000047683716
-.035999998450279236
-.017000000923871994
.006000000052154064
.027000000700354576
.041999999433755875
.050999999046325684
.03700000047683716
.017000000923871994
.007000000216066837
-.012000000104308128
-.02500000037252903
-.007000000216066837
.02800000086426735
.05299999937415123
.0860000029206276
.0949999988079071
.08399999886751175
.08299999684095383
.06199999898672104
.052000001072883606
.07400000095367432
.0860000029206276
.0820000022649765
.10400000214576721
.1120000034570694
.11599999666213989
.11500000208616257
.10700000077486038
.10499999672174454
.12200000137090683
.14800000190734863
.1589999943971634
.17399999499320984
.1809999942779541
.17499999701976776
.15800000727176666
.18000000715255737
.21400000154972076
.25699999928474426
.28999999165534973
.2849999964237213
.27399998903274536
.2460000067949295
.20499999821186066
.16500000655651093
.16099999845027924
.17100000381469727
.17900000512599945
.19499999284744263
.21199999749660492
.2150000035762787
.19499999284744263
.17100000381469727
.14900000393390656
.13899999856948853
.12999999523162842
.09099999815225601
.06300000101327896
.041999999433755875
.035999998450279236
.04899999871850014
.08900000154972076
.10899999737739563
.1080000028014183
.07999999821186066
.03099999949336052
0.
-.029999999329447746
-.04600000008940697
-.041999999433755875
-.027000000700354576
-.017999999225139618
-.007000000216066837
-.03200000151991844
-.06199999898672104
-.08500000089406967
-.10899999737739563
-.08299999684095383
-.041999999433755875
-.024000000208616257
-.023000000044703484
-.023000000044703484
-.04399999976158142
-.03500000014901161
-.014999999664723873
.004999999888241291
.028999999165534973
.029999999329447746
.012000000104308128
-.012000000104308128
-.010999999940395355
-.024000000208616257
-.0020000000949949026
.007000000216066837
-.003000000026077032
-.017999999225139618
-.020999999716877937
.003000000026077032
.017000000923871994
.03500000014901161
.03099999949336052
.032999999821186066
.026000000536441803
.039000000804662704
.04399999976158142
.05700000002980232
.05000000074505806
.009999999776482582
-.009999999776482582
-.004000000189989805
0.
-.010999999940395355
-.035999998450279236
-.06199999898672104
-.07500000298023224
-.09300000220537186
-.07999999821186066
-.08799999952316284
-.08900000154972076
-.10100000351667404
-.125
-.14300000667572021
-.12700000405311584
-.12600000202655792
-.11400000005960464
-.09700000286102295
-.11500000208616257
-.15299999713897705
-.1809999942779541
-.17900000512599945
-.17900000512599945
-.11999999731779099
-.06400000303983688
-.014000000432133675
.050999999046325684
.11299999803304672
.19599999487400055
.3310000002384186,1666205570.3016555
.41200000047683716
.38999998569488525
.2930000126361847
.07599999755620956
-.16300000250339508
-.33899998664855957
-.45399999618530273
-.453000009059906
-.3959999978542328
-.33799999952316284
-.2750000059604645
-.23499999940395355
-.1979999989271164
-.14399999380111694
-.10199999809265137
-.07900000363588333
-.06499999761581421
-.07199999690055847
-.07900000363588333
-.07599999755620956
-.06700000166893005
-.03999999910593033
-.014999999664723873
-.014000000432133675
-.012000000104308128
-.02199999988079071
-.050999999046325684
-.05299999937415123
-.029999999329447746
-.0020000000949949026
.007000000216066837
.008999999612569809
-.0430000014603138
-.09200000017881393
-.13300000131130219
-.13500000536441803
-.10999999940395355
-.0860000029206276
-.05700000002980232
-.03999999910593033
.008999999612569809
.023000000044703484
.026000000536441803
.017999999225139618
.04100000113248825
.041999999433755875
.0560000017285347
.09600000083446503
.09700000286102295
.09200000017881393
.054999999701976776
.04100000113248825
.07100000232458115
.09399999678134918
.08900000154972076
.0820000022649765
.0689999982714653
.04800000041723251
.07199999690055847
.06700000166893005
.10199999809265137
.12399999797344208
.10999999940395355
.10300000011920929
.09000000357627869
.04600000008940697
.01600000075995922
.008999999612569809
-.003000000026077032
.024000000208616257
.052000001072883606
.06199999898672104
.06300000101327896
.04100000113248825
.003000000026077032
-.01899999938905239
-.039000000804662704
-.050999999046325684
-.06800000369548798
-.06400000303983688
-.0729999989271164
-.06499999761581421
-.054999999701976776
-.06599999964237213
-.07599999755620956
-.09399999678134918
-.09200000017881393
-.07699999958276749
-.05999999865889549
-.07199999690055847
-.09600000083446503
-.12800000607967377
-.13099999725818634
-.11800000071525574
-.09799999743700027
-.05299999937415123
-.03700000047683716
-.01600000075995922
-.008999999612569809
-.012000000104308128
-.012000000104308128
-.01899999938905239
-.04399999976158142
-.050999999046325684
-.054999999701976776
-.057999998331069946
-.027000000700354576
-.004000000189989805
.029999999329447746
.050999999046325684
.02800000086426735
-.003000000026077032
-.029999999329447746
-.03500000014901161
-.041999999433755875
.00800000037997961
.052000001072883606
.08100000023841858
.11500000208616257
.1340000033378601
.13099999725818634
.125
.11900000274181366
.07000000029802322
.06700000166893005
.0689999982714653
.05700000002980232
.054999999701976776
.04699999839067459
.017999999225139618
-.017999999225139618
-.020999999716877937
-.039000000804662704
-.02500000037252903
-.00800000037997961
-.0010000000474974513
.0020000000949949026
-.008999999612569809
-.027000000700354576
-.041999999433755875
-.03999999910593033
-.03400000184774399
-.04899999871850014
-.1080000028014183
-.13600000739097595
-.16099999845027924
-.15399999916553497
-.09099999815225601
-.019999999552965164
.06800000369548798
.15800000727176666
.2029999941587448
.2879999876022339
.38499999046325684
.4259999990463257
.40400001406669617
.29499998688697815
.08900000154972076
-.13500000536441803
-.3230000138282776
-.43299999833106995
-.4169999957084656
-.3409999907016754
-.2460000067949295
-.164000004529953
-.11699999868869781
-.10999999940395355
-.09399999678134918
-.0689999982714653
-.06300000101327896
-.057999998331069946
-.07000000029802322
-.09000000357627869
-.07800000160932541
-.05900000035762787
-.04100000113248825
-.01899999938905239
-.020999999716877937
-.035999998450279236
-.024000000208616257
-.017999999225139618
-.020999999716877937
-.017000000923871994
-.01600000075995922
-.05299999937415123
-.04399999976158142
-.03400000184774399
-.029999999329447746
-.0010000000474974513
.012000000104308128
.004000000189989805
.010999999940395355
.013000000268220901
.0020000000949949026
.03099999949336052
.04699999839067459
.0430000014603138
.07100000232458115
.04699999839067459
.02199999988079071
.026000000536441803
.03200000151991844
.054999999701976776
.08900000154972076
.12200000137090683
.13199999928474426
.15700000524520874
.12700000405311584
.10000000149011612
.09200000017881393
.09099999815225601
.10199999809265137
.12600000202655792
.1420000046491623
.1550000011920929
.16200000047683716
.13699999451637268
.10400000214576721
.0860000029206276
.06400000303983688
.04800000041723251
.04699999839067459
.04800000041723251
.06199999898672104
.05999999865889549
.04699999839067459
.023000000044703484
.00800000037997961
-.006000000052154064
-.017999999225139618
-.017999999225139618
-.014000000432133675
-.020999999716877937
-.03999999910593033
-.06199999898672104
-.09099999815225601
-.12399999797344208
-.10999999940395355
-.07699999958276749
-.03700000047683716
-.0010000000474974513
.003000000026077032
-.03700000047683716
-.11299999803304672
-.16699999570846558
-.21400000154972076
-.18299999833106995
-.12999999523162842
-.0820000022649765
-.04100000113248825
-.026000000536441803
-.041999999433755875
-.07100000232458115
-.0860000029206276
-.10599999874830246
-.10300000011920929
-.09600000083446503
-.09099999815225601
-.07400000095367432
-.06300000101327896
-.06400000303983688
-.05000000074505806
-.04500000178813934
-.035999998450279236
-.03099999949336052
-.027000000700354576
-.04100000113248825
-.04399999976158142
-.041999999433755875
-.05999999865889549
-.06400000303983688
-.06400000303983688
-.05700000002980232
-.03799999877810478
-.007000000216066837
0.
-.017999999225139618
-.04399999976158142
-.07699999958276749
-.10400000214576721
-.11299999803304672
-.07999999821186066
-.05700000002980232
-.04600000008940697
-.04899999871850014
-.09099999815225601
-.13500000536441803
-.16099999845027924
-.17800000309944153
-.1889999955892563
-.1679999977350235
-.17599999904632568
-.19200000166893005
-.20900000631809235
-.21699999272823334
-.21899999678134918
-.21400000154972076
-.19300000369548798
-.19200000166893005
-.18799999356269836,1666205571.3016226
-.17499999701976776
-.1599999964237213
-.14499999582767487
-.1120000034570694
-.06499999761581421
.023000000044703484
.1509999930858612
.25200000405311584
.30799999833106995
.2849999964237213
.15800000727176666
-.04800000041723251
-.2709999978542328
-.4390000104904175
-.5019999742507935
-.4729999899864197
-.4000000059604645
-.3319999873638153
-.26499998569488525
-.22499999403953552
-.20200000703334808
-.16599999368190765
-.12999999523162842
-.09700000286102295
-.08500000089406967
-.10400000214576721
-.12600000202655792
-.13899999856948853
-.14000000059604645
-.11800000071525574
-.09200000017881393
-.09600000083446503
-.0949999988079071
-.11299999803304672
-.12999999523162842
-.11599999666213989
-.10999999940395355
-.08799999952316284
-.06199999898672104
-.05700000002980232
-.0689999982714653
-.06700000166893005
-.06700000166893005
-.06300000101327896
-.054999999701976776
-.06199999898672104
-.05299999937415123
-.04800000041723251
-.04800000041723251
-.03799999877810478
-.027000000700354576
-.014999999664723873
-.013000000268220901
-.008999999612569809
-.004999999888241291
0.
.008999999612569809
.029999999329447746
.04399999976158142
.05299999937415123
.052000001072883606
.024000000208616257
.009999999776482582
.017999999225139618
.04500000178813934
.08299999684095383
.11699999868869781
.10999999940395355
.0820000022649765
.05000000074505806
.02500000037252903
.017000000923871994
.027000000700354576
.035999998450279236
.020999999716877937
.008999999612569809
-.00800000037997961
-.012000000104308128
-.014999999664723873
-.013000000268220901
-.013000000268220901
-.014000000432133675
-.032999999821186066
-.057999998331069946
-.08699999749660492
-.11400000005960464
-.11699999868869781
-.11599999666213989
-.11599999666213989
-.1080000028014183
-.09799999743700027
-.08799999952316284
-.057999998331069946
-.03999999910593033
-.04699999839067459
-.07999999821186066
-.12999999523162842
-.18000000715255737
-.19499999284744263
-.17399999499320984
-.14800000190734863
-.11599999666213989
-.10000000149011612
-.11100000143051147
-.12300000339746475
-.12200000137090683
-.125
-.14000000059604645
-.13600000739097595
-.13099999725818634
-.12700000405311584
-.10899999737739563
-.09200000017881393
-.07699999958276749
-.05700000002980232
-.06700000166893005
-.11100000143051147
-.13099999725818634
-.13199999928474426
-.12999999523162842
-.10700000077486038
-.0689999982714653
-.03400000184774399
-.01899999938905239
-.023000000044703484
-.041999999433755875
-.06499999761581421
-.054999999701976776
-.03400000184774399
-.01600000075995922
-.004000000189989805
-.014999999664723873
-.0560000017285347
-.11599999666213989
-.14900000393390656
-.1589999943971634
-.14100000262260437
-.10899999737739563
-.11999999731779099
-.1379999965429306
-.15399999916553497
-.1770000010728836
-.19499999284744263
-.16899999976158142
-.16599999368190765
-.17100000381469727
-.16200000047683716
-.1809999942779541
-.1899999976158142
-.1889999955892563
-.2070000022649765
-.210999995470047
-.1940000057220459
-.19499999284744263
-.1899999976158142
-.1459999978542328
-.10400000214576721
-.05400000140070915
.007000000216066837
.0820000022649765
.16200000047683716
.2329999953508377
.25
.1940000057220459
.08399999886751175
-.07100000232458115
-.2370000034570694
-.36500000953674316
-.41499999165534973
-.4000000059604645
-.375
-.3440000116825104
-.29600000381469727
-.2540000081062317
-.21299999952316284
-.16699999570846558
-.1289999932050705
-.08699999749660492
-.05700000002980232
-.07199999690055847
-.09600000083446503
-.12600000202655792
-.164000004529953
-.1940000057220459
-.15600000321865082
-.1080000028014183
-.04100000113248825
-.009999999776482582
-.03099999949336052
-.08100000023841858
-.125
-.15199999511241913
-.1550000011920929
-.12300000339746475
-.11599999666213989
-.09399999678134918
-.08900000154972076
-.07699999958276749
-.06800000369548798
-.04699999839067459
-.027000000700354576
-.017999999225139618
-.014999999664723873
-.020999999716877937
-.027000000700354576
-.041999999433755875
-.04399999976158142
-.03099999949336052
-.004000000189989805
.020999999716877937
.03700000047683716
.03700000047683716
.035999998450279236
.03999999910593033
.04500000178813934
.04899999871850014
.06499999761581421
.061000000685453415
.04600000008940697
.05299999937415123
.0729999989271164
.09300000220537186
.10199999809265137
.08100000023841858
.03799999877810478
.017999999225139618
.0020000000949949026
.014000000432133675
.06499999761581421
.09600000083446503
.09000000357627869
.061000000685453415
.008999999612569809
-.04399999976158142
-.07400000095367432
-.09600000083446503
-.0989999994635582
-.09200000017881393
-.09799999743700027
-.10899999737739563
-.11900000274181366
-.1120000034570694
-.10499999672174454
-.10100000351667404
-.11900000274181366
-.1589999943971634
-.20600000023841858
-.23100000619888306
-.2329999953508377
-.1979999989271164
-.1550000011920929
-.12700000405311584
-.1080000028014183
-.10300000011920929
-.1340000033378601
-.14800000190734863
-.1599999964237213
-.18299999833106995
-.17800000309944153
-.16200000047683716
-.14300000667572021
-.1080000028014183
-.09000000357627869
-.10100000351667404
-.0989999994635582
-.1120000034570694
-.125
-.1080000028014183
-.07800000160932541
-.04699999839067459
-.019999999552965164
-.028999999165534973
-.05400000140070915
-.0860000029206276
-.11999999731779099
-.12099999934434891
-.09300000220537186
-.07199999690055847
-.07599999755620956
-.09200000017881393
-.11900000274181366
-.1340000033378601
-.12999999523162842
-.11299999803304672
-.09300000220537186
-.08100000023841858
-.10000000149011612
-.11900000274181366
-.1289999932050705
-.1459999978542328
-.16300000250339508
-.17499999701976776
-.18700000643730164
-.1940000057220459
-.20499999821186066
-.21699999272823334
-.2070000022649765
-.20600000023841858
-.20000000298023224
-.20399999618530273,1666205572.3015912
-.210999995470047
-.2329999953508377
-.24899999797344208
-.257999986410141
-.24400000274181366
-.2160000056028366
-.17299999296665192
-.1120000034570694
-.04600000008940697
.04800000041723251
.15299999713897705
.25200000405311584
.2800000011920929
.24300000071525574
.1289999932050705
-.035999998450279236
-.21299999952316284
-.375
-.46799999475479126
-.5019999742507935
-.4740000069141388
-.4180000126361847
-.3400000035762787
-.2630000114440918
-.20600000023841858
-.18700000643730164
-.17900000512599945
-.17800000309944153
-.19099999964237213
-.17499999701976776
-.16599999368190765
-.16699999570846558
-.15800000727176666
-.17399999499320984
-.19300000369548798
-.19200000166893005
-.18700000643730164
-.17399999499320984
-.15600000321865082
-.14900000393390656
-.1550000011920929
-.14800000190734863
-.15000000596046448
-.1420000046491623
-.11400000005960464
-.0989999994635582
-.09799999743700027
-.09700000286102295
-.09300000220537186
-.0949999988079071
-.08399999886751175
-.09000000357627869
-.10400000214576721
-.09600000083446503
-.09799999743700027
-.07800000160932541
-.05700000002980232
-.04500000178813934
-.03999999910593033
-.03400000184774399
-.035999998450279236
-.023000000044703484
-.009999999776482582
.0010000000474974513
.014999999664723873
.00800000037997961
.007000000216066837
-.006000000052154064
-.01600000075995922
-.02199999988079071
-.024000000208616257
-.02199999988079071
-.006000000052154064
-.004999999888241291
-.012000000104308128
-.010999999940395355
-.04399999976158142
-.052000001072883606
-.052000001072883606
-.06700000166893005
-.0689999982714653
-.061000000685453415
-.06400000303983688
-.06499999761581421
-.06400000303983688
-.10400000214576721
-.11900000274181366
-.1379999965429306
-.16300000250339508
-.17100000381469727
-.1599999964237213
-.164000004529953
-.17399999499320984
-.18199999630451202
-.20100000500679016
-.20399999618530273
-.19699999690055847
-.19499999284744263
-.20100000500679016
-.1979999989271164
-.2070000022649765
-.2070000022649765
-.20499999821186066
-.20800000429153442
-.21299999952316284
-.20600000023841858
-.20100000500679016
-.19699999690055847
-.17800000309944153
-.16500000655651093
-.1599999964237213
-.1589999943971634
-.17399999499320984
-.18799999356269836
-.19599999487400055
-.20399999618530273
-.18299999833106995
-.15000000596046448
-.12800000607967377
-.10899999737739563
-.10100000351667404
-.11800000071525574
-.11999999731779099
-.11900000274181366
-.11500000208616257
-.10100000351667404
-.0989999994635582
-.10599999874830246
-.1080000028014183
-.12700000405311584
-.1420000046491623
-.13899999856948853
-.14300000667572021
-.13500000536441803
-.12200000137090683
-.11800000071525574
-.11900000274181366
-.13099999725818634
-.15199999511241913
-.164000004529953
-.17900000512599945
-.19200000166893005
-.20000000298023224
-.20100000500679016
-.210999995470047
-.22300000488758087
-.2409999966621399
-.24199999868869781
-.2409999966621399
-.23499999940395355
-.22100000083446503
-.21799999475479126
-.21699999272823334
-.2280000001192093
-.2409999966621399
-.23000000417232513
-.20100000500679016
-.1550000011920929
-.08500000089406967
.014999999664723873
.14000000059604645
.25699999928474426
.296999990940094
.24400000274181366
.10199999809265137
-.10300000011920929
-.30799999833106995
-.46399998664855957
-.5460000038146973
-.5529999732971191
-.5189999938011169
-.4560000002384186
-.375
-.289000004529953
-.2160000056028366
-.17900000512599945
-.17100000381469727
-.17800000309944153
-.19900000095367432
-.20399999618530273
-.19699999690055847
-.1979999989271164
-.1850000023841858
-.1860000044107437
-.20999999344348907
-.2160000056028366
-.20000000298023224
-.18000000715255737
-.12600000202655792
-.09200000017881393
-.08399999886751175
-.08699999749660492
-.11699999868869781
-.14100000262260437
-.13899999856948853
-.13199999928474426
-.12399999797344208
-.12200000137090683
-.12300000339746475
-.12200000137090683
-.1120000034570694
-.1080000028014183
-.09600000083446503
-.08699999749660492
-.08500000089406967
-.07199999690055847
-.06300000101327896
-.06599999964237213
-.09000000357627869
-.10199999809265137
-.10700000077486038
-.08299999684095383
-.0430000014603138
.0010000000474974513
.027000000700354576
.027000000700354576
.014000000432133675
-.008999999612569809
-.01600000075995922
-.017000000923871994
-.026000000536441803
-.028999999165534973
-.019999999552965164
-.014999999664723873
.003000000026077032
.007000000216066837
.0020000000949949026
-.014000000432133675
-.026000000536441803
-.03799999877810478
-.04100000113248825
-.04500000178813934
-.050999999046325684
-.07599999755620956
-.1120000034570694
-.12399999797344208
-.12600000202655792
-.12200000137090683
-.12099999934434891
-.11400000005960464
-.13699999451637268
-.15399999916553497
-.16699999570846558
-.16599999368190765
-.17499999701976776
-.17499999701976776
-.19300000369548798
-.19900000095367432
-.1860000044107437
-.18799999356269836
-.18799999356269836
-.18700000643730164
-.20800000429153442
-.22200000286102295
-.20499999821186066
-.19099999964237213
-.16899999976158142
-.16099999845027924
-.16699999570846558
-.17800000309944153
-.18799999356269836
-.19300000369548798
-.18199999630451202
-.17399999499320984
-.1679999977350235
-.15700000524520874
-.15000000596046448
-.13500000536441803
-.12700000405311584
-.11999999731779099
-.11800000071525574
-.125
-.12600000202655792
-.12099999934434891
-.11800000071525574
-.11900000274181366
-.12399999797344208
-.12300000339746475
-.11299999803304672
-.10599999874830246
-.09799999743700027
-.09700000286102295
-.10100000351667404
-.11100000143051147
-.12399999797344208
-.12999999523162842
-.13600000739097595
-.15199999511241913
-.16200000047683716
-.17800000309944153
-.19599999487400055
-.20200000703334808
-.2070000022649765
-.21899999678134918
-.22100000083446503
-.22200000286102295
-.2280000001192093
-.23899999260902405
-.24300000071525574
-.24300000071525574,1666205573.285939
-.23999999463558197
-.2290000021457672
-.23499999940395355
-.24699999392032623
-.24699999392032623
-.23399999737739563
-.1889999955892563
-.1120000034570694
-.03099999949336052
.06199999898672104
.1679999977350235
.2329999953508377
.2290000021457672
.1509999930858612
.0010000000474974513
-.1940000057220459
-.3880000114440918
-.5210000276565552
-.5619999766349792
-.527999997138977
-.45899999141693115
-.38100001215934753
-.3050000071525574
-.2529999911785126
-.23199999332427979
-.22200000286102295
-.20399999618530273
-.1889999955892563
-.1770000010728836
-.17399999499320984
-.17800000309944153
-.1899999976158142
-.19300000369548798
-.1940000057220459
-.19099999964237213
-.1720000058412552
-.1589999943971634
-.1550000011920929
-.16099999845027924
-.17000000178813934
-.1809999942779541
-.17900000512599945
-.17499999701976776
-.16599999368190765
-.14900000393390656
-.14399999380111694
-.14100000262260437
-.1340000033378601
-.12200000137090683
-.11500000208616257
-.11100000143051147
-.10100000351667404
-.09799999743700027
-.0989999994635582
-.09300000220537186
-.09300000220537186
-.08500000089406967
-.07199999690055847
-.06700000166893005
-.054999999701976776
-.04699999839067459
-.0560000017285347
-.050999999046325684
-.04500000178813934
-.032999999821186066
-.014999999664723873
-.00800000037997961
-.007000000216066837
0.
.0010000000474974513
-.0010000000474974513
-.004999999888241291
-.01899999938905239
-.029999999329447746
-.03500000014901161
-.03400000184774399
-.014999999664723873
-.003000000026077032
-.006000000052154064
-.03400000184774399
-.0729999989271164
-.10300000011920929
-.12999999523162842
-.12399999797344208
-.10300000011920929
-.06700000166893005
-.061000000685453415
-.07699999958276749
-.11500000208616257
-.14900000393390656
-.18000000715255737
-.20000000298023224
-.19499999284744263
-.17499999701976776
-.15800000727176666
-.16699999570846558
-.1770000010728836
-.19200000166893005
-.20800000429153442
-.21400000154972076
-.20800000429153442
-.19300000369548798
-.1809999942779541
-.1809999942779541
-.1889999955892563
-.18799999356269836
-.1899999976158142
-.18299999833106995
-.17299999296665192
-.17299999296665192
-.17100000381469727
-.18700000643730164
-.17800000309944153
-.1809999942779541
-.1860000044107437
-.1899999976158142
-.1770000010728836
-.16200000047683716
-.1340000033378601
-.1080000028014183
-.10300000011920929
-.09099999815225601
-.1080000028014183
-.12200000137090683
-.11999999731779099
-.10899999737739563
-.10400000214576721
-.09700000286102295
-.0949999988079071
-.0949999988079071
-.09700000286102295
-.11500000208616257
-.1340000033378601
-.1420000046491623
-.1459999978542328
-.14000000059604645
-.12099999934434891
-.1120000034570694
-.12399999797344208
-.14100000262260437
-.1940000057220459
-.2329999953508377
-.24400000274181366
-.24899999797344208
-.23800000548362732
-.21899999678134918
-.20600000023841858
